# energy (Ha) Re{eps}, Im{eps}
   0.000000000       26.00317354       0.000000000    
  0.7500000298E-03   26.00421327      0.2872583660E-01
  0.1500000060E-02   26.00733303      0.5746820712E-01
  0.2250000089E-02   26.01253449      0.8624367079E-01
  0.3000000119E-02   26.01982048      0.1150688376    
  0.3750000149E-02   26.02919493      0.1439603936    
  0.4500000179E-02   26.04066293      0.1729351273    
  0.5250000209E-02   26.05423068      0.2020099548    
  0.6000000238E-02   26.06990556      0.2312019470    
  0.6750000268E-02   26.08769611      0.2605283564    
  0.7500000298E-02   26.10761203      0.2900066443    
  0.8250000328E-02   26.12966421      0.3196545088    
  0.9000000358E-02   26.15386474      0.3494899142    
  0.9750000387E-02   26.18022694      0.3795311201    
  0.1050000042E-01   26.20876536      0.4097967120    
  0.1125000045E-01   26.23949580      0.4403056330    
  0.1200000048E-01   26.27243536      0.4710772163    
  0.1275000051E-01   26.30760244      0.5021312190    
  0.1350000054E-01   26.34501674      0.5334878576    
  0.1425000057E-01   26.38469938      0.5651678445    
  0.1500000060E-01   26.42667281      0.5971924259    
  0.1575000063E-01   26.47096094      0.6295834226    
  0.1650000066E-01   26.51758914      0.6623632712    
  0.1725000069E-01   26.56658425      0.6955550684    
  0.1800000072E-01   26.61797466      0.7291826170    
  0.1875000075E-01   26.67179036      0.7632704746    
  0.1950000077E-01   26.72806294      0.7978440047    
  0.2025000080E-01   26.78682567      0.8329294307    
  0.2100000083E-01   26.84811353      0.8685538930    
  0.2175000086E-01   26.91196331      0.9047455092    
  0.2250000089E-01   26.97841362      0.9415334383    
  0.2325000092E-01   27.04750496      0.9789479481    
  0.2400000095E-01   27.11927980       1.017020487    
  0.2475000098E-01   27.19378265       1.055783762    
  0.2550000101E-01   27.27106011       1.095271816    
  0.2625000104E-01   27.35116097       1.135520119    
  0.2700000107E-01   27.43413628       1.176565659    
  0.2775000110E-01   27.52003944       1.218447039    
  0.2850000113E-01   27.60892628       1.261204581    
  0.2925000116E-01   27.70085517       1.304880444    
  0.3000000119E-01   27.79588713       1.349518738    
  0.3075000122E-01   27.89408590       1.395165656    
  0.3150000125E-01   27.99551809       1.441869613    
  0.3225000128E-01   28.10025329       1.489681392    
  0.3300000131E-01   28.20836419       1.538654302    
  0.3375000134E-01   28.31992672       1.588844354    
  0.3450000137E-01   28.43502017       1.640310441    
  0.3525000140E-01   28.55372739       1.693114537    
  0.3600000143E-01   28.67613489       1.747321911    
  0.3675000146E-01   28.80233304       1.803001358    
  0.3750000149E-01   28.93241624       1.860225449    
  0.3825000152E-01   29.06648310       1.919070797    
  0.3900000155E-01   29.20463663       1.979618351    
  0.3975000158E-01   29.34698447       2.041953710    
  0.4050000161E-01   29.49363909       2.106167467    
  0.4125000164E-01   29.64471803       2.172355577    
  0.4200000167E-01   29.80034411       2.240619761    
  0.4275000170E-01   29.96064575       2.311067946    
  0.4350000173E-01   30.12575718       2.383814741    
  0.4425000176E-01   30.29581874       2.458981953    
  0.4500000179E-01   30.47097721       2.536699158    
  0.4575000182E-01   30.65138607       2.617104318    
  0.4650000185E-01   30.83720587       2.700344455    
  0.4725000188E-01   31.02860456       2.786576394    
  0.4800000191E-01   31.22575787       2.875967567    
  0.4875000194E-01   31.42884964       2.968696907    
  0.4950000197E-01   31.63807226       3.064955819    
  0.5025000200E-01   31.85362707       3.164949250    
  0.5100000203E-01   32.07572476       3.268896868    
  0.5175000206E-01   32.30458584       3.377034361    
  0.5250000209E-01   32.54044106       3.489614864    
  0.5325000212E-01   32.78353187       3.606910541    
  0.5400000215E-01   33.03411093       3.729214326    
  0.5475000218E-01   33.29244249       3.856841861    
  0.5550000221E-01   33.55880295       3.990133628    
  0.5625000224E-01   33.83348123       4.129457327    
  0.5700000226E-01   34.11677924       4.275210509    
  0.5775000229E-01   34.40901228       4.427823505    
  0.5850000232E-01   34.71050937       4.587762687    
  0.5925000235E-01   35.02161355       4.755534105    
  0.6000000238E-01   35.34268206       4.931687533    
  0.6075000241E-01   35.67408644       5.116821003    
  0.6150000244E-01   36.01621243       5.311585861    
  0.6225000247E-01   36.36945967       5.516692429    
  0.6300000250E-01   36.73424120       5.732916345    
  0.6375000253E-01   37.11098254       5.961105675    
  0.6450000256E-01   37.50012044       6.202188875    
  0.6525000259E-01   37.90210099       6.457183737    
  0.6600000262E-01   38.31737717       6.727207425    
  0.6675000265E-01   38.74640551       7.013487738    
  0.6750000268E-01   39.18964164       7.317375749    
  0.6825000271E-01   39.64753464       7.640359974    
  0.6900000274E-01   40.12051961       7.984082246    
  0.6975000277E-01   40.60900825       8.350355458    
  0.7050000280E-01   41.11337685       8.741183353    
  0.7125000283E-01   41.63395106       9.158782518    
  0.7200000286E-01   42.17098666       9.605606695    
  0.7275000289E-01   42.72464541       10.08437351    
  0.7350000292E-01   43.29496467       10.59809355    
  0.7425000295E-01   43.88181948       11.15010165    
  0.7500000298E-01   44.48487526       11.74408998    
  0.7575000301E-01   45.10352890       12.38414212    
  0.7650000304E-01   45.73683597       13.07476698    
  0.7725000307E-01   46.38342080       13.82093053    
  0.7800000310E-01   47.04136631       14.62808242    
  0.7875000313E-01   47.70807988       15.50217323    
  0.7950000316E-01   48.38013155       16.44965625    
  0.8025000319E-01   49.05306110       17.47746528    
  0.8100000322E-01   49.72115194       18.59295727    
  0.8175000325E-01   50.37717142       19.80380484    
  0.8250000328E-01   51.01208163       21.11782013    
  0.8325000331E-01   51.61473051       22.54268804    
  0.8400000334E-01   52.17154263       24.08558437    
  0.8475000337E-01   52.66624100       25.75265550    
  0.8550000340E-01   53.07964655       27.54834186    
  0.8625000343E-01   53.38961712       29.47454168    
  0.8700000346E-01   53.57119989       31.52963476    
  0.8775000349E-01   53.59707261       33.70741910    
  0.8850000352E-01   53.43833420       35.99604940    
  0.8925000355E-01   53.06567026       38.37709598    
  0.9000000358E-01   52.45086990       40.82485040    
  0.9075000361E-01   51.56862615       43.30598334    
  0.9150000364E-01   50.39853566       45.77962062    
  0.9225000367E-01   48.92723502       48.19787921    
  0.9300000370E-01   47.15064293       50.50693402    
  0.9375000373E-01   45.07625522       52.64877327    
  0.9450000376E-01   42.72530368       54.56387987    
  0.9525000378E-01   40.13435064       56.19503666    
  0.9600000381E-01   37.35566408       57.49220536    
  0.9675000384E-01   34.45567337       58.41799856    
  0.9750000387E-01   31.51106645       58.95280554    
  0.9825000390E-01   28.60264507       59.09836597    
  0.9900000393E-01   25.80774441       58.87868972    
  0.9975000396E-01   23.19258711       58.33773989    
  0.1005000040       20.80613078       57.53409235    
  0.1012500040       18.67666721       56.53357562    
  0.1020000041       16.81174365       55.40137881    
  0.1027500041       15.20117290       54.19513849    
  0.1035000041       13.82226588       52.96013947    
  0.1042500041       12.64610459       51.72719601    
  0.1050000042       11.64365684       50.51322043    
  0.1057500042       10.79071202       49.32403589    
  0.1065000042       10.07091151       48.15866022    
  0.1072500043       9.476530581       47.01407787    
  0.1080000043       9.007129588       45.88946810    
  0.1087500043       8.666656421       44.78903469    
  0.1095000044       8.459909949       43.72298927    
  0.1102500044       8.389331223       42.70676652    
  0.1110000044       8.452849806       41.75900378    
  0.1117500044       8.643091232       40.89903858    
  0.1125000045       8.947831247       40.14463043    
  0.1132500045       9.351304848       39.51038165    
  0.1140000045       9.835882439       39.00705017    
  0.1147500046       10.38366759       38.64171096    
  0.1155000046       10.97768232       38.41856525    
  0.1162500046       11.60244029       38.34010839    
  0.1170000046       12.24384980       38.40833137    
  0.1177500047       12.88853145       38.62564789    
  0.1185000047       13.52276226       38.99531559    
  0.1192500047       14.13133528       39.52125014    
  0.1200000048       14.69662627       40.20728148    
  0.1207500048       15.19808639       41.05602642    
  0.1215000048       15.61226442       42.06761777    
  0.1222500049       15.91334179       43.23853360    
  0.1230000049       16.07406362       44.56072702    
  0.1237500049       16.06687319       46.02118225    
  0.1245000049       15.86501063       47.60191721    
  0.1252500050       15.44333884       49.28031321    
  0.1260000050       14.77875053       51.02950150    
  0.1267500050       13.85021399       52.81843946    
  0.1275000051       12.63879722       54.61136288    
  0.1282500051       11.12825081       56.36656774    
  0.1290000051       9.306764760       58.03491643    
  0.1297500052       7.170224128       59.55891073    
  0.1305000052       4.726698327       60.87339124    
  0.1312500052       2.001199679       61.90872095    
  0.1320000052     -0.9607620920       62.59666016    
  0.1327500053      -4.092343363       62.87822097    
  0.1335000053      -7.308216782       62.71194694    
  0.1342500053      -10.51108448       62.08066847    
  0.1350000054      -13.60075745       60.99504497    
  0.1357500054      -16.48397308       59.49303501    
  0.1365000054      -19.08299344       57.63550316    
  0.1372500055      -21.34148386       55.49907830    
  0.1380000055      -23.22697720       53.16785336    
  0.1387500055      -24.73007473       50.72549652    
  0.1395000055      -25.86116883       48.24894019    
  0.1402500056      -26.64576978       45.80422815    
  0.1410000056      -27.11948748       43.44453975    
  0.1417500056      -27.32346415       41.21001357    
  0.1425000057      -27.30071550       39.12880861    
  0.1432500057      -27.09352960       37.21883686    
  0.1440000057      -26.74185517       35.48970477    
  0.1447500058      -26.28249338       33.94454359    
  0.1455000058      -25.74886681       32.58154254    
  0.1462500058      -25.17114629       31.39510178    
  0.1470000058      -24.57654390       30.37659429    
  0.1477500059      -23.98961149       29.51477303    
  0.1485000059      -23.43241289       28.79589584    
  0.1492500059      -22.92446591       28.20367361    
  0.1500000060      -22.48238645       27.71918372    
  0.1507500060      -22.11922266       27.32092490    
  0.1515000060      -21.84355153       26.98520761    
  0.1522500060      -21.65851940       26.68704914    
  0.1530000061      -21.56111674       26.40164828    
  0.1537500061      -21.54203404       26.10634374    
  0.1545000061      -21.58639128       25.78274708    
  0.1552500062      -21.67543735       25.41856888    
  0.1560000062      -21.78901932       25.00862681    
  0.1567500062      -21.90833842       24.55469071    
  0.1575000063      -22.01837606       24.06413849    
  0.1582500063      -22.10945556       23.54773510    
  0.1590000063      -22.17766144       23.01706312    
  0.1597500063      -22.22414462       22.48216255    
  0.1605000064      -22.25358139       21.94981187    
  0.1612500064      -22.27217557       21.42268978    
  0.1620000064      -22.28561473       20.89947030    
  0.1627500065      -22.29735303       20.37575081    
  0.1635000065      -22.30752177       19.84558592    
  0.1642500065      -22.31265681       19.30329489    
  0.1650000066      -22.30627169       18.74514749    
  0.1657500066      -22.28011126       18.17055502    
  0.1665000066      -22.22575324       17.58252246    
  0.1672500066      -22.13615414       16.98732681    
  0.1680000067      -22.00679767       16.39359737    
  0.1687500067      -21.83626807       15.81110116    
  0.1695000067      -21.62625895       15.24954353    
  0.1702500068      -21.38116495       14.71760394    
  0.1710000068      -21.10745497       14.22229862    
  0.1717500068      -20.81300147       13.76865231    
  0.1725000069      -20.50647775       13.35959815    
  0.1732500069      -20.19686569       12.99600786    
  0.1740000069      -19.89306296       12.67677117    
  0.1747500069      -19.60354645       12.39887664    
  0.1755000070      -19.33603824       12.15748484    
  0.1762500070      -19.09712911       11.94602173    
  0.1770000070      -18.89184067       11.75634889    
  0.1777500071      -18.72314859       11.57908055    
  0.1785000071      -18.59153852       11.40410574    
  0.1792500071      -18.49470923       11.22133037    
  0.1800000072      -18.42755101       11.02158237    
  0.1807500072      -18.38249325       10.79754398    
  0.1815000072      -18.35023061       10.54452415    
  0.1822500072      -18.32072809       10.26089229    
  0.1830000073      -18.28431704       9.948070847    
  0.1837500073      -18.23266715       9.610099509    
  0.1845000073      -18.15946417       9.252890665    
  0.1852500074      -18.06071465       8.883353462    
  0.1860000074      -17.93469709       8.508560476    
  0.1867500074      -17.78164840       8.135081788    
  0.1875000075      -17.60330349       7.768544566    
  0.1882500075      -17.40239743       7.413416483    
  0.1890000075      -17.18221048       7.072972294    
  0.1897500075      -16.94620078       6.749386525    
  0.1905000076      -16.69773875       6.443896580    
  0.1912500076      -16.43993667       6.156991754    
  0.1920000076      -16.17555619       5.888598002    
  0.1927500077      -15.90697317       5.638241401    
  0.1935000077      -15.63618109       5.405183120    
  0.1942500077      -15.36481749       5.188525134    
  0.1950000077      -15.09420244       4.987289446    
  0.1957500078      -14.82538126       4.800475109    
  0.1965000078      -14.55916701       4.627097628    
  0.1972500078      -14.29617983       4.466214922    
  0.1980000079      -14.03688215       4.316943388    
  0.1987500079      -13.78160923       4.178466903    
  0.1995000079      -13.53059525       4.050040903    
  0.2002500080      -13.28399539       3.930993171    
  0.2010000080      -13.04190441       3.820722470    
  0.2017500080      -12.80437232       3.718695848    
  0.2025000080      -12.57141773       3.624445121    
  0.2032500081      -12.34303927       3.537562883    
  0.2040000081      -12.11922572       3.457698195    
  0.2047500081      -11.89996495       3.384551992    
  0.2055000082      -11.68525223       3.317872133    
  0.2062500082      -11.47509783       3.257447972    
  0.2070000082      -11.26953421       3.203104220    
  0.2077500083      -11.06862251       3.154693914    
  0.2085000083      -10.87245834       3.112090305    
  0.2092500083      -10.68117635       3.075177606    
  0.2100000083      -10.49495327       3.043840772    
  0.2107500084      -10.31400903       3.017954708    
  0.2115000084      -10.13860588       2.997373601    
  0.2122500084      -9.969045946       2.981921097    
  0.2130000085      -9.805668427       2.971381691    
  0.2137500085      -9.648847820       2.965492682    
  0.2145000085      -9.498994548       2.963934484    
  0.2152500086      -9.356557447       2.966315558    
  0.2160000086      -9.222024556       2.972147868    
  0.2167500086      -9.095914840       2.980810734    
  0.2175000086      -8.978750986       2.991505945    
  0.2182500087      -8.871004151       3.003213944    
  0.2190000087      -8.773007196       3.014667616    
  0.2197500087      -8.684842945       3.024363324    
  0.2205000088      -8.606226154       3.030625595    
  0.2212500088      -8.536407891       3.031730950    
  0.2220000088      -8.474133790       3.026079396    
  0.2227500089      -8.417679537       3.012384338    
  0.2235000089      -8.364968369       2.989840724    
  0.2242500089      -8.313752471       2.958233225    
  0.2250000089      -8.261822502       2.917961756    
  0.2257500090      -8.207204561       2.869983865    
  0.2265000090      -8.148312132       2.815692887    
  0.2272500090      -8.084036130       2.756760642    
  0.2280000091      -8.013771602       2.694973556    
  0.2287500091      -7.937390608       2.632084942    
  0.2295000091      -7.855176605       2.569697952    
  0.2302500091      -7.767737427       2.509185450    
  0.2310000092      -7.675912549       2.451645921    
  0.2317500092      -7.580686746       2.397889216    
  0.2325000092      -7.483117189       2.348442962    
  0.2332500093      -7.384275981       2.303570130    
  0.2340000093      -7.285205830       2.263289972    
  0.2347500093      -7.186883967       2.227397673    
  0.2355000094      -7.090188420       2.195481732    
  0.2362500094      -6.995861657       2.166941806    
  0.2370000094      -6.904469199       2.141012670    
  0.2377500094      -6.816355035       2.116801489    
  0.2385000095      -6.731600760       2.093344495    
  0.2392500095      -6.649999966       2.069684822    
  0.2400000095      -6.571061025       2.044965756    
  0.2407500096      -6.494047966       2.018525207    
  0.2415000096      -6.418060053       1.989971559    
  0.2422500096      -6.342138724       1.959222033    
  0.2430000097      -6.265380781       1.926493358    
  0.2437500097      -6.187034135       1.892247855    
  0.2445000097      -6.106558419       1.857110108    
  0.2452500097      -6.023644168       1.821775121    
  0.2460000098      -5.938195762       1.786926902    
  0.2467500098      -5.850290442       1.753179218    
  0.2475000098      -5.760127282       1.721041914    
  0.2482500099      -5.667977356       1.690909797    
  0.2490000099      -5.574141980       1.663067874    
  0.2497500099      -5.478921745       1.637706294    
  0.2505000100      -5.382596169       1.614939444    
  0.2512500100      -5.285412221       1.594825415    
  0.2520000100      -5.187579481       1.577383634    
  0.2527500100      -5.089269808       1.562609699    
  0.2535000101      -4.990619793       1.550487222    
  0.2542500101      -4.891734733       1.540996942    
  0.2550000101      -4.792693296       1.534123524    
  0.2557500102      -4.693552347       1.529860533    
  0.2565000102      -4.594351672       1.528213999    
  0.2572500102      -4.495118459       1.529204947    
  0.2580000103      -4.395871528       1.532871151    
  0.2587500103      -4.296625337       1.539268314    
  0.2595000103      -4.197393820       1.548470786    
  0.2602500103      -4.098194115       1.560571895    
  0.2610000104      -3.999050224       1.575683889    
  0.2617500104      -3.899996612       1.593937488    
  0.2625000104      -3.801081720       1.615481019    
  0.2632500105      -3.702371317       1.640479137    
  0.2640000105      -3.603951584       1.669111193    
  0.2647500105      -3.505931883       1.701569386    
  0.2655000106      -3.408447200       1.738056941    
  0.2662500106      -3.311660486       1.778786576    
  0.2670000106      -3.215765351       1.823979411    
  0.2677500106      -3.120989810       1.873864175    
  0.2685000107      -3.027601736       1.928675954    
  0.2692500107      -2.935916304       1.988653164    
  0.2700000107      -2.846304678       2.054031064    
  0.2707500108      -2.759202017       2.125030525    
  0.2715000108      -2.675111875       2.201842120    
