# energy (Ha) Re{sigma}, Im{sigma}
   0.000000000      0.1989689286E-01   0.000000000    
  0.7500000298E-03  0.1989943470E-01 -0.1469469818E-02
  0.1500000060E-02  0.1990706264E-01 -0.2939298872E-02
  0.2250000089E-02  0.1991978394E-01 -0.4409846714E-02
  0.3000000119E-02  0.1993761074E-01 -0.5881473525E-02
  0.3750000149E-02  0.1996056005E-01 -0.7354540437E-02
  0.4500000179E-02  0.1998865380E-01 -0.8829409844E-02
  0.5250000209E-02  0.2002191892E-01 -0.1030644573E-01
  0.6000000238E-02  0.2006038732E-01 -0.1178601400E-01
  0.6750000268E-02  0.2010409606E-01 -0.1326848277E-01
  0.7500000298E-02  0.2015308735E-01 -0.1475422276E-01
  0.8250000328E-02  0.2020740865E-01 -0.1624360758E-01
  0.9000000358E-02  0.2026711283E-01 -0.1773701409E-01
  0.9750000387E-02  0.2033225823E-01 -0.1923482274E-01
  0.1050000042E-01  0.2040290880E-01 -0.2073741797E-01
  0.1125000045E-01  0.2047913426E-01 -0.2224518848E-01
  0.1200000048E-01  0.2056101023E-01 -0.2375852770E-01
  0.1275000051E-01  0.2064861844E-01 -0.2527783411E-01
  0.1350000054E-01  0.2074204686E-01 -0.2680351165E-01
  0.1425000057E-01  0.2084138995E-01 -0.2833597011E-01
  0.1500000060E-01  0.2094674884E-01 -0.2987562556E-01
  0.1575000063E-01  0.2105823162E-01 -0.3142290076E-01
  0.1650000066E-01  0.2117595352E-01 -0.3297822558E-01
  0.1725000069E-01  0.2130003725E-01 -0.3454203752E-01
  0.1800000072E-01  0.2143061325E-01 -0.3611478208E-01
  0.1875000075E-01  0.2156782003E-01 -0.3769691333E-01
  0.1950000077E-01  0.2171180453E-01 -0.3928889435E-01
  0.2025000080E-01  0.2186272242E-01 -0.4089119780E-01
  0.2100000083E-01  0.2202073857E-01 -0.4250430641E-01
  0.2175000086E-01  0.2218602742E-01 -0.4412871358E-01
  0.2250000089E-01  0.2235877345E-01 -0.4576492395E-01
  0.2325000092E-01  0.2253917166E-01 -0.4741345400E-01
  0.2400000095E-01  0.2272742812E-01 -0.4907483270E-01
  0.2475000098E-01  0.2292376046E-01 -0.5074960214E-01
  0.2550000101E-01  0.2312839853E-01 -0.5243831826E-01
  0.2625000104E-01  0.2334158503E-01 -0.5414155153E-01
  0.2700000107E-01  0.2356357616E-01 -0.5585988773E-01
  0.2775000110E-01  0.2379464241E-01 -0.5759392873E-01
  0.2850000113E-01  0.2403506932E-01 -0.5934429331E-01
  0.2925000116E-01  0.2428515835E-01 -0.6111161800E-01
  0.3000000119E-01  0.2454522777E-01 -0.6289655804E-01
  0.3075000122E-01  0.2481561368E-01 -0.6469978826E-01
  0.3150000125E-01  0.2509667104E-01 -0.6652200412E-01
  0.3225000128E-01  0.2538877480E-01 -0.6836392274E-01
  0.3300000131E-01  0.2569232117E-01 -0.7022628397E-01
  0.3375000134E-01  0.2600772890E-01 -0.7210985160E-01
  0.3450000137E-01  0.2633544069E-01 -0.7401541448E-01
  0.3525000140E-01  0.2667592480E-01 -0.7594378786E-01
  0.3600000143E-01  0.2702967662E-01 -0.7789581471E-01
  0.3675000146E-01  0.2739722051E-01 -0.7987236709E-01
  0.3750000149E-01  0.2777911173E-01 -0.8187434766E-01
  0.3825000152E-01  0.2817593850E-01 -0.8390269123E-01
  0.3900000155E-01  0.2858832433E-01 -0.8595836637E-01
  0.3975000158E-01  0.2901693041E-01 -0.8804237714E-01
  0.4050000161E-01  0.2946245831E-01 -0.9015576492E-01
  0.4125000164E-01  0.2992565288E-01 -0.9229961028E-01
  0.4200000167E-01  0.3040730535E-01 -0.9447503501E-01
  0.4275000170E-01  0.3090825678E-01 -0.9668320420E-01
  0.4350000173E-01  0.3142940175E-01 -0.9892532847E-01
  0.4425000176E-01  0.3197169246E-01 -0.1012026663    
  0.4500000179E-01  0.3253614307E-01 -0.1035165264    
  0.4575000182E-01  0.3312383457E-01 -0.1058682705    
  0.4650000185E-01  0.3373592003E-01 -0.1082593157    
  0.4725000188E-01  0.3437363038E-01 -0.1106911376    
  0.4800000191E-01  0.3503828067E-01 -0.1131652729    
  0.4875000194E-01  0.3573127702E-01 -0.1156833230    
  0.4950000197E-01  0.3645412418E-01 -0.1182469565    
  0.5025000200E-01  0.3720843386E-01 -0.1208579133    
  0.5100000203E-01  0.3799593393E-01 -0.1235180074    
  0.5175000206E-01  0.3881847842E-01 -0.1262291307    
  0.5250000209E-01  0.3967805872E-01 -0.1289932569    
  0.5325000212E-01  0.4057681579E-01 -0.1318124450    
  0.5400000215E-01  0.4151705371E-01 -0.1346888428    
  0.5475000218E-01  0.4250125469E-01 -0.1376246915    
  0.5550000221E-01  0.4353209564E-01 -0.1406223288    
  0.5625000224E-01  0.4461246656E-01 -0.1436841930    
  0.5700000226E-01  0.4574549099E-01 -0.1468128264    
  0.5775000229E-01  0.4693454865E-01 -0.1500108790    
  0.5850000232E-01  0.4818330070E-01 -0.1532811111    
  0.5925000235E-01  0.4949571789E-01 -0.1566263962    
  0.6000000238E-01  0.5087611183E-01 -0.1600497226    
  0.6075000241E-01  0.5232917007E-01 -0.1635541947    
  0.6150000244E-01  0.5385999511E-01 -0.1671430325    
  0.6225000247E-01  0.5547414822E-01 -0.1708195703    
  0.6300000250E-01  0.5717769833E-01 -0.1745872528    
  0.6375000253E-01  0.5897727689E-01 -0.1784496289    
  0.6450000256E-01  0.6088013938E-01 -0.1824103430    
  0.6525000259E-01  0.6289423426E-01 -0.1864731211    
  0.6600000262E-01  0.6502828033E-01 -0.1906417527    
  0.6675000265E-01  0.6729185361E-01 -0.1949200662    
  0.6750000268E-01  0.6969548468E-01 -0.1993118964    
  0.6825000271E-01  0.7225076791E-01 -0.2038210415    
  0.6900000274E-01  0.7497048377E-01 -0.2084512084    
  0.6975000277E-01  0.7786873553E-01 -0.2132059419    
  0.7050000280E-01  0.8096110179E-01 -0.2180885343    
  0.7125000283E-01  0.8426480599E-01 -0.2231019115    
  0.7200000286E-01  0.8779890398E-01 -0.2282484880    
  0.7275000289E-01  0.9158449022E-01 -0.2335299850    
  0.7350000292E-01  0.9564492253E-01 -0.2389472017    
  0.7425000295E-01  0.1000060641     -0.2444997290    
  0.7500000298E-01  0.1046965402     -0.2501855924    
  0.7575000301E-01  0.1097480032     -0.2560008078    
  0.7650000304E-01  0.1151953979     -0.2619388304    
  0.7725000307E-01  0.1210772124     -0.2679898753    
  0.7800000310E-01  0.1274356913     -0.2741400838    
  0.7875000313E-01  0.1343169823     -0.2803705076    
  0.7950000316E-01  0.1417711671     -0.2866558818    
  0.8025000319E-01  0.1498521174     -0.2929631610    
  0.8100000322E-01  0.1586170875     -0.2992498002    
  0.8175000325E-01  0.1681259353     -0.3054617756    
  0.8250000328E-01  0.1784398299     -0.3115313738    
  0.8325000331E-01  0.1896192800     -0.3173748196    
  0.8400000334E-01  0.2017212973     -0.3228898811    
  0.8475000337E-01  0.2147955143     -0.3279536850    
  0.8550000340E-01  0.2288791143     -0.3324210842    
  0.8625000343E-01  0.2439905343     -0.3361240390    
  0.8700000346E-01  0.2601220687     -0.3388725641    
  0.8775000349E-01  0.2772317453     -0.3404578181    
  0.8850000352E-01  0.2952351115     -0.3406578086    
  0.8925000355E-01  0.3139977933     -0.3392459474    
  0.9000000358E-01  0.3333297654     -0.3360023439    
  0.9075000361E-01  0.3529821402     -0.3307274080    
  0.9150000364E-01  0.3726470389     -0.3232572173    
  0.9225000367E-01  0.3919609746     -0.3134802359    
  0.9300000370E-01  0.4105124406     -0.3013551605    
  0.9375000373E-01  0.4278550584     -0.2869294151    
  0.9450000376E-01  0.4435282112     -0.2703567062    
  0.9525000378E-01  0.4570867061     -0.2519101807    
  0.9600000381E-01  0.4681390313     -0.2319859838    
  0.9675000384E-01  0.4763903990     -0.2110917015    
  0.9750000387E-01  0.4816831854     -0.1898162268    
  0.9825000390E-01  0.4840252861     -0.1687819343    
  0.9900000393E-01  0.4835977021     -0.1485854561    
  0.9975000396E-01  0.4807367088     -0.1297377991    
  0.1005000040      0.4758922045     -0.1126160731    
  0.1012500040      0.4695700619     -0.9743679541E-01
  0.1020000041      0.4622701713     -0.8425536480E-01
  0.1027500041      0.4544321191     -0.7298998488E-01
  0.1035000041      0.4463975703     -0.6346328726E-01
  0.1042500041      0.4383939970     -0.5545232789E-01
  0.1050000042      0.4305399776     -0.4873736723E-01
  0.1057500042      0.4228686455     -0.4314113489E-01
  0.1065000042      0.4153630981     -0.3855254137E-01
  0.1072500043      0.4079957143     -0.3493189770E-01
  0.1080000043      0.4007628137     -0.3229853484E-01
  0.1087500043      0.3937074937     -0.3070565033E-01
  0.1095000044      0.3869268830     -0.3021001852E-01
  0.1102500044      0.3805644966     -0.3084471689E-01
  0.1110000044      0.3747922327     -0.3260100672E-01
  0.1117500044      0.3697884454     -0.3542193018E-01
  0.1125000045      0.3657181182     -0.3920660711E-01
  0.1132500045      0.3627192040     -0.4382184171E-01
  0.1140000045      0.3608967822     -0.4911681853E-01
  0.1147500046      0.3603246571     -0.5493700755E-01
  0.1155000046      0.3610526398     -0.6113433488E-01
  0.1162500046      0.3631169506     -0.6757182989E-01
  0.1170000046      0.3665508193     -0.7412221093E-01
  0.1177500047      0.3713924788     -0.8066117058E-01
  0.1185000047      0.3776884231     -0.8705729546E-01
  0.1192500047      0.3854909874     -0.9316129036E-01
  0.1200000048      0.3948506997     -0.9879721439E-01
  0.1207500048      0.4058050175     -0.1037577822    
  0.1215000048      0.4183656971     -0.1078047171    
  0.1222500049      0.4325070877     -0.1106740222    
  0.1230000049      0.4481572641     -0.1120850786    
  0.1237500049      0.4651932080     -0.1117517430    
  0.1245000049      0.4834402245     -0.1093931397    
  0.1252500050      0.5026744040     -0.1047418686    
  0.1260000050      0.5226254380     -0.9754826348E-01
  0.1267500050      0.5429761555     -0.8758139796E-01
  0.1275000051      0.5633557397     -0.7463038588E-01
  0.1282500051      0.5833263502     -0.5851192648E-01
  0.1290000051      0.6023674134     -0.3909032769E-01
  0.1297500052      0.6198664239     -0.1631318419E-01
  0.1305000052      0.6351272854      0.9740262454E-02
  0.1312500052      0.6474050618      0.3880832004E-01
  0.1320000052      0.6559691817      0.7040912776E-01
  0.1327500053      0.6601874947      0.1038319531    
  0.1335000053      0.6596147239      0.1381676932    
  0.1342500053      0.6540646845      0.1723783175    
  0.1350000054      0.6436483592      0.2053936534    
  0.1357500054      0.6287686667      0.2362161572    
  0.1365000054      0.6100740459      0.2640128828    
  0.1372500055      0.5883826120      0.2881786368    
  0.1380000055      0.5645937484      0.3083628222    
  0.1387500055      0.5396038673      0.3244614606    
  0.1395000055      0.5142388316      0.3365826714    
  0.1402500056      0.4892093151      0.3449971173    
  0.1410000056      0.4650893770      0.3500846358    
  0.1417500056      0.4423142681      0.3522855934    
  0.1425000057      0.4211914850      0.3520618906    
  0.1432500057      0.4019190153      0.3498692479    
  0.1440000057      0.3846058096      0.3461400651    
  0.1447500058      0.3692910304      0.3412748704    
  0.1455000058      0.3559600543      0.3356399253    
  0.1462500058      0.3445563157      0.3295686109    
  0.1470000058      0.3349888551      0.3233644911    
  0.1477500059      0.3271359652      0.3173042631    
  0.1485000059      0.3208457480      0.3116390985    
  0.1492500059      0.3159348011      0.3065931705    
  0.1500000060      0.3121867073      0.3023585771    
  0.1507500060      0.3093524367      0.2990865312    
  0.1515000060      0.3071550031      0.2968757152    
  0.1522500060      0.3053004182      0.2957600340    
  0.1530000061      0.3034958384      0.2956993383    
  0.1537500061      0.3014736944      0.2965773824    
  0.1545000061      0.2990179734      0.2982106107    
  0.1552500062      0.2959867030      0.3003689441    
  0.1560000062      0.2923243204      0.3028060794    
  0.1567500062      0.2880596677      0.3052933268    
  0.1575000063      0.2832892899      0.3076493501    
  0.1582500063      0.2781498959      0.3097591940    
  0.1590000063      0.2727865251      0.3115791394    
  0.1597500063      0.2673233404      0.3131277114    
  0.1605000064      0.2618424394      0.3144661411    
  0.1612500064      0.2563737146      0.3156731148    
  0.1620000064      0.2508964822      0.3168189572    
  0.1627500065      0.2453516728      0.3179439778    
  0.1635000065      0.2396617375      0.3190448490    
  0.1642500065      0.2337540281      0.3200714910    
  0.1650000066      0.2275825562      0.3209348647    
  0.1657500066      0.2211432873      0.3215235540    
  0.1665000066      0.2144797938      0.3217248173    
  0.1672500066      0.2076788172      0.3214448565    
  0.1680000067      0.2008580340      0.3206238504    
  0.1687500067      0.1941499917      0.3192434412    
  0.1695000067      0.1876862635      0.3173268240    
  0.1702500068      0.1815846911      0.3149333760    
  0.1710000068      0.1759409048      0.3121504254    
  0.1717500068      0.1708238746      0.3090844438    
  0.1725000069      0.1662744211      0.3058531103    
  0.1732500069      0.1623053991      0.3025787890    
  0.1740000069      0.1589024952      0.2993832447    
  0.1747500069      0.1560250274      0.2963830021    
  0.1755000070      0.1536066662      0.2936846136    
  0.1762500070      0.1515564983      0.2913792274    
  0.1770000070      0.1497612550      0.2895362183    
  0.1777500071      0.1480897090      0.2881962275    
  0.1785000071      0.1464000729      0.2873646601    
  0.1792500071      0.1445506039      0.2870072975    
  0.1800000072      0.1424125910      0.2870498772    
  0.1807500072      0.1398837642      0.2873829956    
  0.1815000072      0.1368994247      0.2878724769    
  0.1822500072      0.1334387207      0.2883737768    
  0.1830000073      0.1295245796      0.2887477201    
  0.1837500073      0.1252174742      0.2888744757    
  0.1845000073      0.1206047318      0.2886633138    
  0.1852500074      0.1157879388      0.2880570033    
  0.1860000074      0.1108709418      0.2870311176    
  0.1867500074      0.1059502497      0.2855895234    
  0.1875000075      0.1011086790      0.2837577450    
  0.1882500075      0.9641222398E-01  0.2815757807    
  0.1890000075      0.9190956971E-01  0.2790915329    
  0.1897500075      0.8763342845E-01  0.2763554971    
  0.1905000076      0.8360289506E-01  0.2734169186    
  0.1912500076      0.7982617955E-01  0.2703213236    
  0.1920000076      0.7630328062E-01  0.2671091758    
  0.1927500077      0.7302835269E-01  0.2638153626    
  0.1935000077      0.6999166227E-01  0.2604692396    
  0.1942500077      0.6718112189E-01  0.2570950097    
  0.1950000077      0.6458344137E-01  0.2537122763    
  0.1957500078      0.6218495816E-01  0.2503366605    
  0.1965000078      0.5997221287E-01  0.2469804137    
  0.1972500078      0.5793233033E-01  0.2436529872    
  0.1980000079      0.5605325740E-01  0.2403615419    
  0.1987500079      0.5432389843E-01  0.2371113913    
  0.1995000079      0.5273417945E-01  0.2339063813    
  0.2002500080      0.5127506444E-01  0.2307492124    
  0.2010000080      0.4993854036E-01  0.2276417122    
  0.2017500080      0.4871758249E-01  0.2245850669    
  0.2025000080      0.4760610762E-01  0.2215800198    
  0.2032500081      0.4659891967E-01  0.2186270445    
  0.2040000081      0.4569164982E-01  0.2157264987    
  0.2047500081      0.4488069137E-01  0.2128787643    
  0.2055000082      0.4416312776E-01  0.2100843782    
  0.2062500082      0.4353665128E-01  0.2073441560    
  0.2070000082      0.4299946875E-01  0.2046593088    
  0.2077500083      0.4255019057E-01  0.2020315525    
  0.2085000083      0.4218770000E-01  0.1994632055    
  0.2092500083      0.4191100158E-01  0.1969572679    
  0.2100000083      0.4171905106E-01  0.1945174756    
  0.2107500084      0.4161057383E-01  0.1921483234    
  0.2115000084      0.4158388302E-01  0.1898550540    
  0.2122500084      0.4163670936E-01  0.1876436226    
  0.2130000085      0.4176604841E-01  0.1855206530    
  0.2137500085      0.4196801339E-01  0.1834934134    
  0.2145000085      0.4223765518E-01  0.1815698290    
  0.2152500086      0.4256868539E-01  0.1797585240    
  0.2160000086      0.4295303221E-01  0.1780688266    
  0.2167500086      0.4338019488E-01  0.1765106094    
  0.2175000086      0.4383644873E-01  0.1750937921    
  0.2182500087      0.4430407530E-01  0.1738273482    
  0.2190000087      0.4476090844E-01  0.1727177562    
  0.2197500087      0.4518054234E-01  0.1717670138    
  0.2205000088      0.4553349001E-01  0.1709705429    
  0.2212500088      0.4578938823E-01  0.1703154956    
  0.2220000088      0.4592004601E-01  0.1697800140    
  0.2227500089      0.4590281970E-01  0.1693338600    
  0.2235000089      0.4572360344E-01  0.1689404988    
  0.2242500089      0.4537875907E-01  0.1685603163    
  0.2250000089      0.4487558226E-01  0.1681543405    
  0.2257500090      0.4423129453E-01  0.1676877449    
  0.2265000090      0.4347089240E-01  0.1671325614    
  0.2272500090      0.4262436132E-01  0.1664692983    
  0.2280000091      0.4172376394E-01  0.1656874372    
  0.2287500091      0.4080060711E-01  0.1647849721    
  0.2295000091      0.3988374645E-01  0.1637672606    
  0.2302500091      0.3899794264E-01  0.1626454877    
  0.2310000092      0.3816305609E-01  0.1614350236    
  0.2317500092      0.3739377078E-01  0.1601538890    
  0.2325000092      0.3669968477E-01  0.1588214541    
  0.2332500093      0.3608559783E-01  0.1574574085    
  0.2340000093      0.3555185756E-01  0.1560809561    
  0.2347500093      0.3509468248E-01  0.1547101485    
  0.2355000094      0.3470644783E-01  0.1533612468    
  0.2362500094      0.3437598814E-01  0.1520480231    
  0.2370000094      0.3408902586E-01  0.1507809581    
  0.2377500094      0.3382886265E-01  0.1495663749    
  0.2385000095      0.3357744961E-01  0.1484056420    
  0.2392500095      0.3331686835E-01  0.1472946700    
  0.2400000095      0.3303111178E-01  0.1462239521    
  0.2407500096      0.3270789137E-01  0.1451793383    
  0.2415000096      0.3234008961E-01  0.1441435514    
  0.2422500096      0.3192649517E-01  0.1430982303    
  0.2430000097      0.3147162458E-01  0.1420260939    
  0.2437500097      0.3098468962E-01  0.1409127721    
  0.2445000097      0.3047800105E-01  0.1397479636    
  0.2452500097      0.2996520934E-01  0.1385258007    
  0.2460000098      0.2945974543E-01  0.1372445193    
  0.2467500098      0.2897368679E-01  0.1359056706    
  0.2475000098      0.2851711368E-01  0.1345131414    
  0.2482500099      0.2809789815E-01  0.1330721967    
  0.2490000099      0.2772180683E-01  0.1315886780    
  0.2497500099      0.2739278967E-01  0.1300684090    
  0.2505000100      0.2711334856E-01  0.1285168047    
  0.2512500100      0.2688491300E-01  0.1269386513    
  0.2520000100      0.2670818079E-01  0.1253380133    
  0.2527500100      0.2658340507E-01  0.1237182278    
  0.2535000101      0.2651062426E-01  0.1220819516    
  0.2542500101      0.2648983960E-01  0.1204312391    
  0.2550000101      0.2652114861E-01  0.1187676323    
  0.2557500102      0.2660484359E-01  0.1170922553    
  0.2565000102      0.2674148338E-01  0.1154059072    
  0.2572500102      0.2693194521E-01  0.1137091506    
  0.2580000103      0.2717746190E-01  0.1120023962    
  0.2587500103      0.2747964789E-01  0.1102859836    
  0.2595000103      0.2784051645E-01  0.1085602597    
  0.2602500103      0.2826248904E-01  0.1068256564    
  0.2610000104      0.2874839692E-01  0.1050827673    
  0.2617500104      0.2930147458E-01  0.1033324242    
  0.2625000104      0.2992534438E-01  0.1015757732    
  0.2632500105      0.3062399238E-01  0.9981434798E-01
  0.2640000105      0.3140173641E-01  0.9805013841E-01
  0.2647500105      0.3226318938E-01  0.9628565352E-01
  0.2655000106      0.3321322266E-01  0.9452397862E-01
  0.2662500106      0.3425693495E-01  0.9276883127E-01
  0.2670000106      0.3539962995E-01  0.9102462615E-01
  0.2677500106      0.3664679881E-01  0.8929656311E-01
  0.2685000107      0.3800409143E-01  0.8759075329E-01
  0.2692500107      0.3947724756E-01  0.8591438780E-01
  0.2700000107      0.4107195143E-01  0.8427593353E-01
  0.2707500108      0.4279358253E-01  0.8268531330E-01
  0.2715000108      0.4464686413E-01  0.8115400744E-01
