# Macroscopic dielectric function epsm
#
# Momentum transfer Q=G+q in lattice cooridnates
# G:   0   0   0
# q:   0.0000000   0.0000000   0.0000000
# Momentum transfer Q=G+q in Cartesian cooridnates
# G:   0.0000000   0.0000000   0.0000000
# q:   0.0000000   0.0000000   0.0000000
# Norm2(G+q)   0.0000000
#
# Energy scale=   27.211384
# Used broadening in scaled energy units:    0.048980
#
# Number of k-points=       9
# Unit cell volume [au]=  378.743578
# Coulomb potential v(Q) [au]=          0.000000
#
#             Frequency                Re(epsm)                Im(epsm)       Re(epsm) form KKT
+0.0000000000000000E+00 +0.2419522773700016E+01 +0.5686837858979810E-19 +0.2419287780302633E+01
+0.5669038304166667E-02 +0.2419527453364245E+01 +0.8100124808277025E-04 +0.2419269201445577E+01
+0.1133807660833333E-01 +0.2419541492671312E+01 +0.1620079629077780E-03 +0.2419284534043948E+01
+0.1700711491250000E-01 +0.2419564892564426E+01 +0.2430256125872065E-03 +0.2419311350396793E+01
+0.2267615321666667E-01 +0.2419597654615869E+01 +0.3240596679738627E-03 +0.2419342915522488E+01
+0.2834519152083333E-01 +0.2419639781027381E+01 +0.4051156040333837E-03 +0.2419385308957951E+01
+0.3401422982500001E-01 +0.2419691274630705E+01 +0.4861989012187635E-03 +0.2419436649669178E+01
+0.3968326812916667E-01 +0.2419752138888303E+01 +0.5673150468478629E-03 +0.2419497532670435E+01
+0.4535230643333334E-01 +0.2419822377894207E+01 +0.6484695364847871E-03 +0.2419567739290835E+01
+0.5102134473750001E-01 +0.2419901996375044E+01 +0.7296678753258180E-03 +0.2419647342142818E+01
+0.5669038304166667E-01 +0.2419990999691215E+01 +0.8109155795907255E-03 +0.2419736323314422E+01
+0.6235942134583334E-01 +0.2420089393838233E+01 +0.8922181779201873E-03 +0.2419834695274544E+01
+0.6802845965000001E-01 +0.2420197185448218E+01 +0.9735812127801715E-03 +0.2419942462355070E+01
+0.7369749795416668E-01 +0.2420314381791558E+01 +0.1055010241874003E-02 +0.2420059632345613E+01
+0.7936653625833334E-01 +0.2420440990778729E+01 +0.1136510839562976E-02 +0.2420186212908519E+01
+0.8503557456250001E-01 +0.2420577020962271E+01 +0.1218088598296264E-02 +0.2420322212612147E+01
+0.9070461286666667E-01 +0.2420722481538947E+01 +0.1299749130050993E-02 +0.2420467640611016E+01
+0.9637365117083335E-01 +0.2420877382352041E+01 +0.1381498067783273E-02 +0.2420622506733466E+01
+0.1020426894750000E+00 +0.2421041733893844E+01 +0.1463341066891025E-02 +0.2420786821454714E+01
+0.1077117277791667E+00 +0.2421215547308296E+01 +0.1545283806689469E-02 +0.2420960595905419E+01
+0.1133807660833333E+00 +0.2421398834393799E+01 +0.1627331991900143E-02 +0.2421143841871341E+01
+0.1190498043875000E+00 +0.2421591607606199E+01 +0.1709491354154260E-02 +0.2421336571796344E+01
+0.1247188426916667E+00 +0.2421793880061950E+01 +0.1791767653511387E-02 +0.2421538798785029E+01
+0.1303878809958333E+00 +0.2422005665541441E+01 +0.1874166679994278E-02 +0.2421750536605870E+01
+0.1360569193000000E+00 +0.2422226978492500E+01 +0.1956694255140778E-02 +0.2421971799694548E+01
+0.1417259576041667E+00 +0.2422457834034082E+01 +0.2039356233573784E-02 +0.2422202603157559E+01
+0.1473949959083334E+00 +0.2422698247960133E+01 +0.2122158504590178E-02 +0.2422442962775968E+01
+0.1530640342125000E+00 +0.2422948236743641E+01 +0.2205106993769696E-02 +0.2422692895009437E+01
+0.1587330725166667E+00 +0.2423207817540856E+01 +0.2288207664604726E-02 +0.2422952417000431E+01
+0.1644021108208334E+00 +0.2423477008195723E+01 +0.2371466520152087E-02 +0.2423221546578548E+01
+0.1700711491250000E+00 +0.2423755827244477E+01 +0.2454889604707749E-02 +0.2423500302265165E+01
+0.1757401874291667E+00 +0.2424044293920455E+01 +0.2538483005505604E-02 +0.2423788703278186E+01
+0.1814092257333333E+00 +0.2424342428159077E+01 +0.2622252854441377E-02 +0.2424086769537017E+01
+0.1870782640375000E+00 +0.2424650250603051E+01 +0.2706205329822698E-02 +0.2424394521667768E+01
+0.1927473023416667E+00 +0.2424967782607766E+01 +0.2790346658146558E-02 +0.2424711981008623E+01
+0.1984163406458334E+00 +0.2425295046246874E+01 +0.2874683115905272E-02 +0.2425039169615400E+01
+0.2040853789500000E+00 +0.2425632064318118E+01 +0.2959221031422122E-02 +0.2425376110267363E+01
+0.2097544172541667E+00 +0.2425978860349328E+01 +0.3043966786717900E-02 +0.2425722826473243E+01
+0.2154234555583334E+00 +0.2426335458604661E+01 +0.3128926819409648E-02 +0.2426079342477430E+01
+0.2210924938625000E+00 +0.2426701884091044E+01 +0.3214107624642782E-02 +0.2426445683266394E+01
+0.2267615321666667E+00 +0.2427078162564849E+01 +0.3299515757058019E-02 +0.2426821874575376E+01
+0.2324305704708334E+00 +0.2427464320538779E+01 +0.3385157832794377E-02 +0.2427207942895265E+01
+0.2380996087750000E+00 +0.2427860385289001E+01 +0.3471040531529708E-02 +0.2427603915479675E+01
+0.2437686470791667E+00 +0.2428266384862498E+01 +0.3557170598560113E-02 +0.2428009820352338E+01
+0.2494376853833334E+00 +0.2428682348084679E+01 +0.3643554846919821E-02 +0.2428425686314654E+01
+0.2551067236875000E+00 +0.2429108304567205E+01 +0.3730200159542890E-02 +0.2428851542953520E+01
+0.2607757619916667E+00 +0.2429544284716086E+01 +0.3817113491468468E-02 +0.2429287420649413E+01
+0.2664448002958333E+00 +0.2429990319740030E+01 +0.3904301872091057E-02 +0.2429733350584732E+01
+0.2721138386000000E+00 +0.2430446441659026E+01 +0.3991772407457554E-02 +0.2430189364752330E+01
+0.2777828769041667E+00 +0.2430912683313226E+01 +0.4079532282612678E-02 +0.2430655495964442E+01
+0.2834519152083334E+00 +0.2431389078372070E+01 +0.4167588763994650E-02 +0.2431131777861717E+01
+0.2891209535125001E+00 +0.2431875661343694E+01 +0.4255949201882762E-02 +0.2431618244922666E+01
+0.2947899918166667E+00 +0.2432372467584621E+01 +0.4344621032898973E-02 +0.2432114932473313E+01
+0.3004590301208334E+00 +0.2432879533309740E+01 +0.4433611782565143E-02 +0.2432621876697132E+01
+0.3061280684250001E+00 +0.2433396895602570E+01 +0.4522929067918150E-02 +0.2433139114645359E+01
+0.3117971067291667E+00 +0.2433924592425833E+01 +0.4612580600184868E-02 +0.2433666684247455E+01
+0.3174661450333334E+00 +0.2434462662632336E+01 +0.4702574187519027E-02 +0.2434204624322028E+01
+0.3231351833375000E+00 +0.2435011145976147E+01 +0.4792917737802353E-02 +0.2434752974587989E+01
+0.3288042216416667E+00 +0.2435570083124125E+01 +0.4883619261512056E-02 +0.2435311775676007E+01
+0.3344732599458334E+00 +0.2436139515667747E+01 +0.4974686874657149E-02 +0.2435881069140364E+01
+0.3401422982500000E+00 +0.2436719486135294E+01 +0.5066128801785957E-02 +0.2436460897471091E+01
+0.3458113365541667E+00 +0.2437310038004372E+01 +0.5157953379067350E-02 +0.2437051304106473E+01
+0.3514803748583334E+00 +0.2437911215714780E+01 +0.5250169057448327E-02 +0.2437652333445891E+01
+0.3571494131625000E+00 +0.2438523064681765E+01 +0.5342784405890535E-02 +0.2438264030863046E+01
+0.3628184514666667E+00 +0.2439145631309614E+01 +0.5435808114688643E-02 +0.2438886442719520E+01
+0.3684874897708333E+00 +0.2439778963005656E+01 +0.5529248998873333E-02 +0.2439519616378758E+01
+0.3741565280750000E+00 +0.2440423108194632E+01 +0.5623116001701986E-02 +0.2440163600220385E+01
+0.3798255663791667E+00 +0.2441078116333481E+01 +0.5717418198240100E-02 +0.2440818443655003E+01
+0.3854946046833334E+00 +0.2441744037926532E+01 +0.5812164799036632E-02 +0.2441484197139312E+01
+0.3911636429875001E+00 +0.2442420924541109E+01 +0.5907365153896642E-02 +0.2442160912191695E+01
+0.3968326812916667E+00 +0.2443108828823579E+01 +0.6003028755754645E-02 +0.2442848641408234E+01
+0.4025017195958334E+00 +0.2443807804515839E+01 +0.6099165244652207E-02 +0.2443547438479160E+01
+0.4081707579000001E+00 +0.2444517906472260E+01 +0.6195784411823611E-02 +0.2444257358205753E+01
+0.4138397962041667E+00 +0.2445239190677093E+01 +0.6292896203893227E-02 +0.2444978456517719E+01
+0.4195088345083334E+00 +0.2445971714262368E+01 +0.6390510727188813E-02 +0.2445710790491055E+01
+0.4251778728125000E+00 +0.2446715535526277E+01 +0.6488638252174701E-02 +0.2446454418366365E+01
+0.4308469111166667E+00 +0.2447470713952063E+01 +0.6587289218009221E-02 +0.2447209399567718E+01
+0.4365159494208334E+00 +0.2448237310227440E+01 +0.6686474237230869E-02 +0.2447975794722054E+01
+0.4421849877250000E+00 +0.2449015386264544E+01 +0.6786204100577766E-02 +0.2448753665679050E+01
+0.4478540260291667E+00 +0.2449805005220432E+01 +0.6886489781945311E-02 +0.2449543075531574E+01
+0.4535230643333333E+00 +0.2450606231518155E+01 +0.6987342443486918E-02 +0.2450344088636728E+01
+0.4591921026375000E+00 +0.2451419130868415E+01 +0.7088773440863143E-02 +0.2451156770637466E+01
+0.4648611409416668E+00 +0.2452243770291806E+01 +0.7190794328644525E-02 +0.2451981188484716E+01
+0.4705301792458333E+00 +0.2453080218141702E+01 +0.7293416865873758E-02 +0.2452817410460318E+01
+0.4761992175500001E+00 +0.2453928544127756E+01 +0.7396653021793123E-02 +0.2453665506200354E+01
+0.4818682558541667E+00 +0.2454788819340061E+01 +0.7500514981743095E-02 +0.2454525546719328E+01
+0.4875372941583334E+00 +0.2455661116273989E+01 +0.7605015153238584E-02 +0.2455397604434943E+01
+0.4932063324625001E+00 +0.2456545508855728E+01 +0.7710166172229307E-02 +0.2456281753193501E+01
+0.4988753707666667E+00 +0.2457442072468514E+01 +0.7815980909551162E-02 +0.2457178068296169E+01
+0.5045444090708334E+00 +0.2458350883979631E+01 +0.7922472477575682E-02 +0.2458086626525826E+01
+0.5102134473750001E+00 +0.2459272021768142E+01 +0.8029654237065097E-02 +0.2459007506174792E+01
+0.5158824856791667E+00 +0.2460205565753419E+01 +0.8137539804240528E-02 +0.2459940787073224E+01
+0.5215515239833334E+00 +0.2461151597424473E+01 +0.8246143058071592E-02 +0.2460886550618442E+01
+0.5272205622875000E+00 +0.2462110199870123E+01 +0.8355478147795576E-02 +0.2461844879804909E+01
+0.5328896005916667E+00 +0.2463081457810013E+01 +0.8465559500675127E-02 +0.2462815859255304E+01
+0.5385586388958334E+00 +0.2464065457626524E+01 +0.8576401830003338E-02 +0.2463799575252243E+01
+0.5442276772000001E+00 +0.2465062287397593E+01 +0.8688020143365909E-02 +0.2464796115771052E+01
+0.5498967155041667E+00 +0.2466072036930474E+01 +0.8800429751170199E-02 +0.2465805570513420E+01
+0.5555657538083334E+00 +0.2467094797796477E+01 +0.8913646275451440E-02 +0.2466828030942084E+01
+0.5612347921125000E+00 +0.2468130663366707E+01 +0.9027685658966994E-02 +0.2467863590316426E+01
+0.5669038304166668E+00 +0.2469179728848832E+01 +0.9142564174589793E-02 +0.2468912343729138E+01
+0.5725728687208334E+00 +0.2470242091324941E+01 +0.9258298435012725E-02 +0.2469974388144008E+01
+0.5782419070250001E+00 +0.2471317849790487E+01 +0.9374905402776280E-02 +0.2471049822434729E+01
+0.5839109453291668E+00 +0.2472407105194381E+01 +0.9492402400631979E-02 +0.2472138747424856E+01
+0.5895799836333334E+00 +0.2473509960480265E+01 +0.9610807122255318E-02 +0.2473241265929044E+01
+0.5952490219375001E+00 +0.2474626520629009E+01 +0.9730137643321856E-02 +0.2474357482795300E+01
+0.6009180602416667E+00 +0.2475756892702456E+01 +0.9850412432961166E-02 +0.2475487504948690E+01
+0.6065870985458334E+00 +0.2476901185888480E+01 +0.9971650365603822E-02 +0.2476631441436251E+01
+0.6122561368500001E+00 +0.2478059511547395E+01 +0.1009387073323737E-01 +0.2477789403473206E+01
+0.6179251751541667E+00 +0.2479231983259741E+01 +0.1021709325808787E-01 +0.2478961504490667E+01
+0.6235942134583334E+00 +0.2480418716875528E+01 +0.1034133810574453E-01 +0.2480147860184695E+01
+0.6292632517625001E+00 +0.2481619830564965E+01 +0.1046662589874548E-01 +0.2481348588566883E+01
+0.6349322900666667E+00 +0.2482835444870730E+01 +0.1059297773064386E-01 +0.2482563810016467E+01
+0.6406013283708334E+00 +0.2484065682761838E+01 +0.1072041518057409E-01 +0.2483793647333986E+01
+0.6462703666750000E+00 +0.2485310669689166E+01 +0.1084896032833925E-01 +0.2485038225796694E+01
+0.6519394049791667E+00 +0.2486570533642694E+01 +0.1097863577004132E-01 +0.2486297673215552E+01
+0.6576084432833335E+00 +0.2487845405210501E+01 +0.1110946463427732E-01 +0.2487572119994081E+01
+0.6632774815875001E+00 +0.2489135417639621E+01 +0.1124147059892514E-01 +0.2488861699188973E+01
+0.6689465198916668E+00 +0.2490440706898788E+01 +0.1137467790854440E-01 +0.2490166546572672E+01
+0.6746155581958334E+00 +0.2491761411743158E+01 +0.1150911139241842E-01 +0.2491486800697822E+01
+0.6802845965000001E+00 +0.2493097673781072E+01 +0.1164479648326516E-01 +0.2492822602963876E+01
+0.6859536348041668E+00 +0.2494449637542940E+01 +0.1178175923664588E-01 +0.2494174097685654E+01
+0.6916226731083334E+00 +0.2495817450552327E+01 +0.1192002635110199E-01 +0.2495541432164254E+01
+0.6972917114125001E+00 +0.2497201263399311E+01 +0.1205962518905194E-01 +0.2496924756760132E+01
+0.7029607497166668E+00 +0.2498601229816203E+01 +0.1220058379848154E-01 +0.2498324224968514E+01
+0.7086297880208334E+00 +0.2500017506755739E+01 +0.1234293093546292E-01 +0.2499739993497359E+01
+0.7142988263250001E+00 +0.2501450254471786E+01 +0.1248669608753880E-01 +0.2501172222347745E+01
+0.7199678646291667E+00 +0.2502899636602724E+01 +0.1263190949801103E-01 +0.2502621074896927E+01
+0.7256369029333334E+00 +0.2504365820257545E+01 +0.1277860219117380E-01 +0.2504086717984141E+01
+0.7313059412375001E+00 +0.2505848976104822E+01 +0.1292680599853457E-01 +0.2505569321999237E+01
+0.7369749795416667E+00 +0.2507349278464618E+01 +0.1307655358606737E-01 +0.2507069060974223E+01
+0.7426440178458334E+00 +0.2508866905403489E+01 +0.1322787848254592E-01 +0.2508586112677895E+01
+0.7483130561500001E+00 +0.2510402038832668E+01 +0.1338081510900616E-01 +0.2510120658713650E+01
+0.7539820944541668E+00 +0.2511954864609573E+01 +0.1353539880939061E-01 +0.2511672884620606E+01
+0.7596511327583334E+00 +0.2513525572642775E+01 +0.1369166588242936E-01 +0.2513242979978104E+01
+0.7653201710625001E+00 +0.2515114357000548E+01 +0.1384965361481592E-01 +0.2514831138513876E+01
+0.7709892093666668E+00 +0.2516721416023156E+01 +0.1400940031573880E-01 +0.2516437558215802E+01
+0.7766582476708335E+00 +0.2518346952439032E+01 +0.1417094535283299E-01 +0.2518062441447683E+01
+0.7823272859750001E+00 +0.2519991173484985E+01 +0.1433432918961923E-01 +0.2519705995068888E+01
+0.7879963242791668E+00 +0.2521654291030629E+01 +0.1449959342450258E-01 +0.2521368430558252E+01
+0.7936653625833334E+00 +0.2523336521707192E+01 +0.1466678083140506E-01 +0.2523049964142376E+01
+0.7993344008875001E+00 +0.2525038087040877E+01 +0.1483593540211240E-01 +0.2524750816928360E+01
+0.8050034391916668E+00 +0.2526759213590990E+01 +0.1500710239041817E-01 +0.2526471215041338E+01
+0.8106724774958334E+00 +0.2528500133093007E+01 +0.1518032835815395E-01 +0.2528211389766899E+01
+0.8163415158000001E+00 +0.2530261082606810E+01 +0.1535566122319878E-01 +0.2529971577698664E+01
+0.8220105541041667E+00 +0.2532042304670293E+01 +0.1553315030956657E-01 +0.2531752020891149E+01
+0.8276795924083334E+00 +0.2533844047458593E+01 +0.1571284639967543E-01 +0.2533552967018322E+01
+0.8333486307125001E+00 +0.2535666564949150E+01 +0.1589480178890921E-01 +0.2535374669537806E+01
+0.8390176690166667E+00 +0.2537510117092880E+01 +0.1607907034258749E-01 +0.2537217387861306E+01
+0.8446867073208334E+00 +0.2539374969991723E+01 +0.1626570755546706E-01 +0.2539081387531239E+01
+0.8503557456250000E+00 +0.2541261396082820E+01 +0.1645477061390520E-01 +0.2540966940404032E+01
+0.8560247839291668E+00 +0.2543169674329649E+01 +0.1664631846082245E-01 +0.2542874324840315E+01
+0.8616938222333335E+00 +0.2545100090420387E+01 +0.1684041186361089E-01 +0.2544803825902286E+01
+0.8673628605375001E+00 +0.2547052936973869E+01 +0.1703711348514239E-01 +0.2546755735558601E+01
+0.8730318988416669E+00 +0.2549028513753427E+01 +0.1723648795804047E-01 +0.2548730352897096E+01
+0.8787009371458334E+00 +0.2551027127889029E+01 +0.1743860196238934E-01 +0.2550727984345789E+01
+0.8843699754500001E+00 +0.2553049094108038E+01 +0.1764352430706450E-01 +0.2552748943902400E+01
+0.8900390137541667E+00 +0.2555094734975027E+01 +0.1785132601487932E-01 +0.2554793553372870E+01
+0.8957080520583335E+00 +0.2557164381141049E+01 +0.1806208041175559E-01 +0.2556862142619248E+01
+0.9013770903625001E+00 +0.2559258371602799E+01 +0.1827586322013726E-01 +0.2558955049817423E+01
+0.9070461286666667E+00 +0.2561377053972147E+01 +0.1849275265688142E-01 +0.2561072621725195E+01
+0.9127151669708335E+00 +0.2563520784756510E+01 +0.1871282953587431E-01 +0.2563215213960936E+01
+0.9183842052750001E+00 +0.2565689929650593E+01 +0.1893617737563620E-01 +0.2565383191293725E+01
+0.9240532435791667E+00 +0.2567884863840034E+01 +0.1916288251219582E-01 +0.2567576927945178E+01
+0.9297222818833335E+00 +0.2570105972317517E+01 +0.1939303421753256E-01 +0.2569796807903665E+01
+0.9353913201875002E+00 +0.2572353650211983E+01 +0.1962672482390378E-01 +0.2572043225251543E+01
+0.9410603584916667E+00 +0.2574628303131544E+01 +0.1986404985439594E-01 +0.2574316584505930E+01
+0.9467293967958336E+00 +0.2576930347520795E+01 +0.2010510816005927E-01 +0.2576617300973849E+01
+0.9523984351000001E+00 +0.2579260211033229E+01 +0.2035000206401010E-01 +0.2578945801122176E+01
+0.9580674734041668E+00 +0.2581618332919503E+01 +0.2059883751291014E-01 +0.2581302522963518E+01
+0.9637365117083334E+00 +0.2584005164432357E+01 +0.2085172423625948E-01 +0.2583687916458409E+01
+0.9694055500125002E+00 +0.2586421169249022E+01 +0.2110877591396913E-01 +0.2586102443934920E+01
+0.9750745883166668E+00 +0.2588866823912005E+01 +0.2137011035271088E-01 +0.2588546580526541E+01
+0.9807436266208334E+00 +0.2591342618289194E+01 +0.2163584967157614E-01 +0.2591020814629005E+01
+0.9864126649250001E+00 +0.2593849056054289E+01 +0.2190612049761178E-01 +0.2593525648377474E+01
+0.9920817032291668E+00 +0.2596386655188593E+01 +0.2218105417184067E-01 +0.2596061598144741E+01
+0.9977507415333334E+00 +0.2598955948505312E+01 +0.2246078696641723E-01 +0.2598629195061754E+01
+0.1003419779837500E+01 +0.2601557484197521E+01 +0.2274546031361376E-01 +0.2601228985561577E+01
+0.1009088818141667E+01 +0.2604191826411083E+01 +0.2303522104738277E-01 +0.2603861531948044E+01
+0.1014757856445833E+01 +0.2606859555843826E+01 +0.2333022165829495E-01 +0.2606527412990421E+01
+0.1020426894750000E+01 +0.2609561270372430E+01 +0.2363062056270815E-01 +0.2609227224545423E+01
+0.1026095933054167E+01 +0.2612297585708506E+01 +0.2393658238708717E-01 +0.2611961580208251E+01
+0.1031764971358333E+01 +0.2615069136085463E+01 +0.2424827826846071E-01 +0.2614731111993855E+01
+0.1037434009662500E+01 +0.2617876574977898E+01 +0.2456588617207450E-01 +0.2617536471050646E+01
+0.1043103047966667E+01 +0.2620720575855281E+01 +0.2488959122737959E-01 +0.2620378328407854E+01
+0.1048772086270833E+01 +0.2623601832971869E+01 +0.2521958608358022E-01 +0.2623257375758864E+01
+0.1054441124575000E+01 +0.2626521062194917E+01 +0.2555607128605867E-01 +0.2626174326282360E+01
+0.1060110162879167E+01 +0.2629479001873348E+01 +0.2589925567509557E-01 +0.2629129915503395E+01
+0.1065779201183333E+01 +0.2632476413749207E+01 +0.2624935680841386E-01 +0.2632124902196844E+01
+0.1071448239487500E+01 +0.2635514083914393E+01 +0.2660660140919391E-01 +0.2635160069335419E+01
+0.1077117277791667E+01 +0.2638592823815295E+01 +0.2697122584133691E-01 +0.2638236225085152E+01
+0.1082786316095834E+01 +0.2641713471308163E+01 +0.2734347661389492E-01 +0.2641354203850816E+01
+0.1088455354400000E+01 +0.2644876891768225E+01 +0.2772361091673958E-01 +0.2644514867374495E+01
+0.1094124392704167E+01 +0.2648083979255750E+01 +0.2811189718970986E-01 +0.2647719105890277E+01
+0.1099793431008333E+01 +0.2651335657742526E+01 +0.2850861572766106E-01 +0.2650967839338593E+01
+0.1105462469312500E+01 +0.2654632882402389E+01 +0.2891405932403821E-01 +0.2654262018643654E+01
+0.1111131507616667E+01 +0.2657976640969776E+01 +0.2932853395581455E-01 +0.2657602627058013E+01
+0.1116800545920833E+01 +0.2661367955170467E+01 +0.2975235951287502E-01 +0.2660990681578189E+01
+0.1122469584225000E+01 +0.2664807882229065E+01 +0.3018587057518592E-01 +0.2664427234436010E+01
+0.1128138622529167E+01 +0.2668297516458013E+01 +0.3062941724137812E-01 +0.2667913374670171E+01
+0.1133807660833334E+01 +0.2671837990933340E+01 +0.3108336601268563E-01 +0.2671450229783181E+01
+0.1139476699137500E+01 +0.2675430479262695E+01 +0.3154810073652523E-01 +0.2675038967489211E+01
