# Macroscopic dielectric function epsm
#
# Momentum transfer Q=G+q in lattice cooridnates
# G:   0   0   0
# q:   0.0000000   0.0000000   0.0000000
# Momentum transfer Q=G+q in Cartesian cooridnates
# G:   0.0000000   0.0000000   0.0000000
# q:   0.0000000   0.0000000   0.0000000
# Norm2(G+q)   0.0000000
#
# Energy scale=   27.211384
# Used broadening in scaled energy units:    0.048980
#
# Number of k-points=       9
# Unit cell volume [au]=  378.743578
# Coulomb potential v(Q) [au]=          0.000000
#
#             Frequency                Re(epsm)                Im(epsm)       Re(epsm) form KKT
+0.0000000000000000E+00 +0.4224289250824802E+01 +0.1811713267965361E-17 +0.4223859875966054E+01
+0.5669038304166667E-02 +0.4224298572520501E+01 +0.1612284965386388E-03 +0.4223822903673906E+01
+0.1133807660833333E-01 +0.4224326537953331E+01 +0.3224629820438399E-03 +0.4223853445922907E+01
+0.1700711491250000E-01 +0.4224373148160495E+01 +0.4837094460753988E-03 +0.4223906860983142E+01
+0.2267615321666667E-01 +0.4224438404870803E+01 +0.6449738793795456E-03 +0.4223969741713402E+01
+0.2834519152083333E-01 +0.4224522310504804E+01 +0.8062622744825733E-03 +0.4224054187046738E+01
+0.3401422982500001E-01 +0.4224624868175060E+01 +0.9675806262848047E-03 +0.4224156450477700E+01
+0.3968326812916667E-01 +0.4224746081686430E+01 +0.1128934932654981E-02 +0.4224277713187882E+01
+0.4535230643333334E-01 +0.4224885955536462E+01 +0.1290331195025396E-02 +0.4224417536325975E+01
+0.5102134473750001E-01 +0.4225044494915823E+01 +0.1451775418987772E-02 +0.4224576060188509E+01
+0.5669038304166667E-01 +0.4225221705708819E+01 +0.1613273614889975E-02 +0.4224753244354196E+01
+0.6235942134583334E-01 +0.4225417594493985E+01 +0.1774831798433797E-02 +0.4224949108289504E+01
+0.6802845965000001E-01 +0.4225632168544719E+01 +0.1936455991273953E-02 +0.4225163654698946E+01
+0.7369749795416668E-01 +0.4225865435830016E+01 +0.2098152221618194E-02 +0.4225396892593177E+01
+0.7936653625833334E-01 +0.4226117405015250E+01 +0.2259926524829012E-02 +0.4225648830153361E+01
+0.8503557456250001E-01 +0.4226388085463036E+01 +0.2421784944026830E-02 +0.4225919476783851E+01
+0.9070461286666667E-01 +0.4226677487234153E+01 +0.2583733530694776E-02 +0.4226208842472429E+01
+0.9637365117083335E-01 +0.4226985621088543E+01 +0.2745778345285435E-02 +0.4226516937961161E+01
+0.1020426894750000E+00 +0.4227312498486386E+01 +0.2907925457829419E-02 +0.4226843774688953E+01
+0.1077117277791667E+00 +0.4227658131589228E+01 +0.3070180948546051E-02 +0.4227189364804392E+01
+0.1133807660833333E+00 +0.4228022533261193E+01 +0.3232550908456328E-02 +0.4227553721160794E+01
+0.1190498043875000E+00 +0.4228405717070260E+01 +0.3395041439998106E-02 +0.4227936857317445E+01
+0.1247188426916667E+00 +0.4228807697289616E+01 +0.3557658657643916E-02 +0.4228338787539939E+01
+0.1303878809958333E+00 +0.4229228488899077E+01 +0.3720408688521346E-02 +0.4228759526801212E+01
+0.1360569193000000E+00 +0.4229668107586576E+01 +0.3883297673036135E-02 +0.4229199090782791E+01
+0.1417259576041667E+00 +0.4230126569749732E+01 +0.4046331765498321E-02 +0.4229657495876059E+01
+0.1473949959083334E+00 +0.4230603892497484E+01 +0.4209517134751325E-02 +0.4230134759183825E+01
+0.1530640342125000E+00 +0.4231100093651801E+01 +0.4372859964804300E-02 +0.4230630898521968E+01
+0.1587330725166667E+00 +0.4231615191749462E+01 +0.4536366455467782E-02 +0.4231145932421081E+01
+0.1644021108208334E+00 +0.4232149206043919E+01 +0.4700042822992923E-02 +0.4231679880128330E+01
+0.1700711491250000E+00 +0.4232702156507218E+01 +0.4863895300714257E-02 +0.4232232761609357E+01
+0.1757401874291667E+00 +0.4233274063832006E+01 +0.5027930139696352E-02 +0.4232804597550234E+01
+0.1814092257333333E+00 +0.4233864949433602E+01 +0.5192153609384443E-02 +0.4233395409359558E+01
+0.1870782640375000E+00 +0.4234474835452171E+01 +0.5356571998259024E-02 +0.4234005219170544E+01
+0.1927473023416667E+00 +0.4235103744754925E+01 +0.5521191614494902E-02 +0.4234634049843232E+01
+0.1984163406458334E+00 +0.4235751700938444E+01 +0.5686018786624553E-02 +0.4235281924966914E+01
+0.2040853789500000E+00 +0.4236418728331060E+01 +0.5851059864206119E-02 +0.4235948868862349E+01
+0.2097544172541667E+00 +0.4237104851995303E+01 +0.6016321218496127E-02 +0.4236634906584280E+01
+0.2154234555583334E+00 +0.4237810097730449E+01 +0.6181809243127240E-02 +0.4237340063923997E+01
+0.2210924938625000E+00 +0.4238534492075125E+01 +0.6347530354790946E-02 +0.4238064367411836E+01
+0.2267615321666667E+00 +0.4239278062310009E+01 +0.6513490993925678E-02 +0.4238807844320076E+01
+0.2324305704708334E+00 +0.4240040836460601E+01 +0.6679697625410231E-02 +0.4239570522665480E+01
+0.2380996087750000E+00 +0.4240822843300071E+01 +0.6846156739262971E-02 +0.4240352431212262E+01
+0.2437686470791667E+00 +0.4241624112352197E+01 +0.7012874851346693E-02 +0.4241153599475048E+01
+0.2494376853833334E+00 +0.4242444673894379E+01 +0.7179858504079639E-02 +0.4241974057721802E+01
+0.2551067236875000E+00 +0.4243284558960736E+01 +0.7347114267152528E-02 +0.4242813836976915E+01
+0.2607757619916667E+00 +0.4244143799345284E+01 +0.7514648738252134E-02 +0.4243672969024527E+01
+0.2664448002958333E+00 +0.4245022427605203E+01 +0.7682468543791295E-02 +0.4244551486411624E+01
+0.2721138386000000E+00 +0.4245920477064178E+01 +0.7850580339645828E-02 +0.4245449422451411E+01
+0.2777828769041667E+00 +0.4246837981815835E+01 +0.8018990811898335E-02 +0.4246366811226861E+01
+0.2834519152083334E+00 +0.4247774976727268E+01 +0.8187706677589239E-02 +0.4247303687594089E+01
+0.2891209535125001E+00 +0.4248731497442620E+01 +0.8356734685475195E-02 +0.4248260087186003E+01
+0.2947899918166667E+00 +0.4249707580386811E+01 +0.8526081616795203E-02 +0.4249236046416028E+01
+0.3004590301208334E+00 +0.4250703262769286E+01 +0.8695754286044424E-02 +0.4250231602481882E+01
+0.3061280684250001E+00 +0.4251718582587902E+01 +0.8865759541756233E-02 +0.4251246793369340E+01
+0.3117971067291667E+00 +0.4252753578632893E+01 +0.9036104267292445E-02 +0.4252281657856329E+01
+0.3174661450333334E+00 +0.4253808290490909E+01 +0.9206795381642131E-02 +0.4253336235516953E+01
+0.3231351833375000E+00 +0.4254882758549173E+01 +0.9377839840229224E-02 +0.4254410566725506E+01
+0.3288042216416667E+00 +0.4255977023999705E+01 +0.9549244635729209E-02 +0.4255504692660898E+01
+0.3344732599458334E+00 +0.4257091128843665E+01 +0.9721016798894939E-02 +0.4256618655310815E+01
+0.3401422982500000E+00 +0.4258225115895787E+01 +0.9893163399392163E-02 +0.4257752497476252E+01
+0.3458113365541667E+00 +0.4259379028788876E+01 +0.1006569154664484E-01 +0.4258906262776001E+01
+0.3514803748583334E+00 +0.4260552911978460E+01 +0.1023860839069046E-01 +0.4260079995651251E+01
+0.3571494131625000E+00 +0.4261746810747493E+01 +0.1041192112304581E-01 +0.4261273741370287E+01
+0.3628184514666667E+00 +0.4262960771211176E+01 +0.1058563697758339E-01 +0.4262487546033442E+01
+0.3684874897708333E+00 +0.4264194840321885E+01 +0.1075976323141874E-01 +0.4263721456577784E+01
+0.3741565280750000E+00 +0.4265449065874192E+01 +0.1093430720580906E-01 +0.4264975520782346E+01
+0.3798255663791667E+00 +0.4266723496509986E+01 +0.1110927626706341E-01 +0.4266249787273137E+01
+0.3854946046833334E+00 +0.4268018181723721E+01 +0.1128467782746477E-01 +0.4267544305528409E+01
+0.3911636429875001E+00 +0.4269333171867743E+01 +0.1146051934620428E-01 +0.4268859125883954E+01
+0.3968326812916667E+00 +0.4270668518157732E+01 +0.1163680833032814E-01 +0.4270194299538627E+01
+0.4025017195958334E+00 +0.4272024272678281E+01 +0.1181355233569727E-01 +0.4271549878559826E+01
+0.4081707579000001E+00 +0.4273400488388534E+01 +0.1199075896796038E-01 +0.4272925915889151E+01
+0.4138397962041667E+00 +0.4274797219127990E+01 +0.1216843588354049E-01 +0.4274322465348238E+01
+0.4195088345083334E+00 +0.4276214519622384E+01 +0.1234659079063565E-01 +0.4275739581644569E+01
+0.4251778728125000E+00 +0.4277652445489696E+01 +0.1252523145023386E-01 +0.4277177320377593E+01
+0.4308469111166667E+00 +0.4279111053246288E+01 +0.1270436567714287E-01 +0.4278635738044695E+01
+0.4365159494208334E+00 +0.4280590400313127E+01 +0.1288400134103524E-01 +0.4280114892047545E+01
+0.4421849877250000E+00 +0.4282090545022173E+01 +0.1306414636750891E-01 +0.4281614840698460E+01
+0.4478540260291667E+00 +0.4283611546622856E+01 +0.1324480873916393E-01 +0.4283135643226813E+01
+0.4535230643333333E+00 +0.4285153465288690E+01 +0.1342599649669566E-01 +0.4284677359785686E+01
+0.4591921026375000E+00 +0.4286716362124011E+01 +0.1360771774000497E-01 +0.4286240051458613E+01
+0.4648611409416668E+00 +0.4288300299170841E+01 +0.1378998062932591E-01 +0.4287823780266411E+01
+0.4705301792458333E+00 +0.4289905339415888E+01 +0.1397279338637134E-01 +0.4289428609174173E+01
+0.4761992175500001E+00 +0.4291531546797680E+01 +0.1415616429549711E-01 +0.4291054602098436E+01
+0.4818682558541667E+00 +0.4293178986213808E+01 +0.1434010170488509E-01 +0.4292701823914374E+01
+0.4875372941583334E+00 +0.4294847723528351E+01 +0.1452461402774597E-01 +0.4294370340463208E+01
+0.4932063324625001E+00 +0.4296537825579397E+01 +0.1470970974354197E-01 +0.4296060218559780E+01
+0.4988753707666667E+00 +0.4298249360186722E+01 +0.1489539739923041E-01 +0.4297771526000162E+01
+0.5045444090708334E+00 +0.4299982396159622E+01 +0.1508168561052862E-01 +0.4299504331569551E+01
+0.5102134473750001E+00 +0.4301737003304875E+01 +0.1526858306320068E-01 +0.4301258705050116E+01
+0.5158824856791667E+00 +0.4303513252434854E+01 +0.1545609851436682E-01 +0.4303034717229183E+01
+0.5215515239833334E+00 +0.4305311215375808E+01 +0.1564424079383616E-01 +0.4304832439907538E+01
+0.5272205622875000E+00 +0.4307130964976265E+01 +0.1583301880546334E-01 +0.4306651945907726E+01
+0.5328896005916667E+00 +0.4308972575115616E+01 +0.1602244152852980E-01 +0.4308493309082682E+01
+0.5385586388958334E+00 +0.4310836120712862E+01 +0.1621251801915074E-01 +0.4310356604324483E+01
+0.5442276772000001E+00 +0.4312721677735496E+01 +0.1640325741170807E-01 +0.4312241907573199E+01
+0.5498967155041667E+00 +0.4314629323208572E+01 +0.1659466892031048E-01 +0.4314149295825914E+01
+0.5555657538083334E+00 +0.4316559135223949E+01 +0.1678676184028149E-01 +0.4316078847146065E+01
+0.5612347921125000E+00 +0.4318511192949667E+01 +0.1697954554967607E-01 +0.4318030640672704E+01
+0.5669038304166668E+00 +0.4320485576639552E+01 +0.1717302951082708E-01 +0.4320004756630133E+01
+0.5725728687208334E+00 +0.4322482367642957E+01 +0.1736722327192225E-01 +0.4322001276337640E+01
+0.5782419070250001E+00 +0.4324501648414695E+01 +0.1756213646861274E-01 +0.4324020282219438E+01
+0.5839109453291668E+00 +0.4326543502525175E+01 +0.1775777882565436E-01 +0.4326061857814728E+01
+0.5895799836333334E+00 +0.4328608014670696E+01 +0.1795416015858232E-01 +0.4328126087788071E+01
+0.5952490219375001E+00 +0.4330695270683966E+01 +0.1815129037542098E-01 +0.4330213057939787E+01
+0.6009180602416667E+00 +0.4332805357544787E+01 +0.1834917947842929E-01 +0.4332322855216745E+01
+0.6065870985458334E+00 +0.4334938363390965E+01 +0.1854783756588348E-01 +0.4334455567723117E+01
+0.6122561368500001E+00 +0.4337094377529409E+01 +0.1874727483389815E-01 +0.4336611284731691E+01
+0.6179251751541667E+00 +0.4339273490447452E+01 +0.1894750157828693E-01 +0.4338790096694861E+01
+0.6235942134583334E+00 +0.4341475793824373E+01 +0.1914852819646427E-01 +0.4340992095256461E+01
+0.6292632517625001E+00 +0.4343701380543145E+01 +0.1935036518938969E-01 +0.4343217373263244E+01
+0.6349322900666667E+00 +0.4345950344702398E+01 +0.1955302316355592E-01 +0.4345466024776991E+01
+0.6406013283708334E+00 +0.4348222781628634E+01 +0.1975651283302254E-01 +0.4347738145086630E+01
+0.6462703666750000E+00 +0.4350518787888628E+01 +0.1996084502149681E-01 +0.4350033830720659E+01
+0.6519394049791667E+00 +0.4352838461302138E+01 +0.2016603066446322E-01 +0.4352353179459799E+01
+0.6576084432833335E+00 +0.4355181900954777E+01 +0.2037208081136362E-01 +0.4354696290349896E+01
+0.6632774815875001E+00 +0.4357549207211203E+01 +0.2057900662782989E-01 +0.4357063263715023E+01
+0.6689465198916668E+00 +0.4359940481728529E+01 +0.2078681939797080E-01 +0.4359454201171008E+01
+0.6746155581958334E+00 +0.4362355827470002E+01 +0.2099553052671549E-01 +0.4361869205638969E+01
+0.6802845965000001E+00 +0.4364795348718953E+01 +0.2120515154221519E-01 +0.4364308381359208E+01
+0.6859536348041668E+00 +0.4367259151093024E+01 +0.2141569409830603E-01 +0.4366771833905606E+01
+0.6916226731083334E+00 +0.4369747341558677E+01 +0.2162716997703471E-01 +0.4369259670199876E+01
+0.6972917114125001E+00 +0.4372260028445970E+01 +0.2183959109124978E-01 +0.4371771998526540E+01
+0.7029607497166668E+00 +0.4374797321463672E+01 +0.2205296948726121E-01 +0.4374308928547843E+01
+0.7086297880208334E+00 +0.4377359331714635E+01 +0.2226731734757053E-01 +0.4376870571319230E+01
+0.7142988263250001E+00 +0.4379946171711520E+01 +0.2248264699367481E-01 +0.4379457039304938E+01
+0.7199678646291667E+00 +0.4382557955392805E+01 +0.2269897088894743E-01 +0.4382068446394023E+01
+0.7256369029333334E+00 +0.4385194798139148E+01 +0.2291630164159834E-01 +0.4384704907916803E+01
+0.7313059412375001E+00 +0.4387856816790081E+01 +0.2313465200771780E-01 +0.4387366540661289E+01
+0.7369749795416667E+00 +0.4390544129661043E+01 +0.2335403489440644E-01 +0.4390053462890386E+01
+0.7426440178458334E+00 +0.4393256856560781E+01 +0.2357446336299577E-01 +0.4392765794359232E+01
+0.7483130561500001E+00 +0.4395995118809102E+01 +0.2379595063236267E-01 +0.4395503656332855E+01
+0.7539820944541668E+00 +0.4398759039255022E+01 +0.2401851008234234E-01 +0.4398267171604262E+01
+0.7596511327583334E+00 +0.4401548742295290E+01 +0.2424215525724330E-01 +0.4401056464513115E+01
+0.7653201710625001E+00 +0.4404364353893307E+01 +0.2446689986946991E-01 +0.4403871660964346E+01
+0.7709892093666668E+00 +0.4407206001598476E+01 +0.2469275780325635E-01 +0.4406712888447708E+01
+0.7766582476708335E+00 +0.4410073814565949E+01 +0.2491974311851755E-01 +0.4409580276057329E+01
+0.7823272859750001E+00 +0.4412967923576837E+01 +0.2514787005482240E-01 +0.4412473954511968E+01
+0.7879963242791668E+00 +0.4415888461058852E+01 +0.2537715303549471E-01 +0.4415394056175549E+01
+0.7936653625833334E+00 +0.4418835561107413E+01 +0.2560760667184784E-01 +0.4418340715078223E+01
+0.7993344008875001E+00 +0.4421809359507248E+01 +0.2583924576755975E-01 +0.4421314066938050E+01
+0.8050034391916668E+00 +0.4424809993754470E+01 +0.2607208532319465E-01 +0.4424314249182809E+01
+0.8106724774958334E+00 +0.4427837603079194E+01 +0.2630614054087847E-01 +0.4427341400972759E+01
+0.8163415158000001E+00 +0.4430892328468626E+01 +0.2654142682913594E-01 +0.4430395663223577E+01
+0.8220105541041667E+00 +0.4433974312690765E+01 +0.2677795980789687E-01 +0.4433477178629979E+01
+0.8276795924083334E+00 +0.4437083700318619E+01 +0.2701575531368031E-01 +0.4436586091689978E+01
+0.8333486307125001E+00 +0.4440220637755025E+01 +0.2725482940496533E-01 +0.4439722548729506E+01
+0.8390176690166667E+00 +0.4443385273258082E+01 +0.2749519836775847E-01 +0.4442886697927888E+01
+0.8446867073208334E+00 +0.4446577756967181E+01 +0.2773687872136714E-01 +0.4446078689343817E+01
+0.8503557456250000E+00 +0.4449798240929706E+01 +0.2797988722439066E-01 +0.4449298674941828E+01
+0.8560247839291668E+00 +0.4453046879128403E+01 +0.2822424088093960E-01 +0.4452546808619751E+01
+0.8616938222333335E+00 +0.4456323827509440E+01 +0.2846995694709627E-01 +0.4455823246236640E+01
+0.8673628605375001E+00 +0.4459629244011195E+01 +0.2871705293762874E-01 +0.4459128145641434E+01
+0.8730318988416669E+00 +0.4462963288593789E+01 +0.2896554663297292E-01 +0.4462461666702420E+01
+0.8787009371458334E+00 +0.4466326123269408E+01 +0.2921545608649667E-01 +0.4465823971337497E+01
+0.8843699754500001E+00 +0.4469717912133410E+01 +0.2946679963206246E-01 +0.4469215223545134E+01
+0.8900390137541667E+00 +0.4473138821396319E+01 +0.2971959589190481E-01 +0.4472635589436326E+01
+0.8957080520583335E+00 +0.4476589019416641E+01 +0.2997386378484080E-01 +0.4476085237267157E+01
+0.9013770903625001E+00 +0.4480068676734642E+01 +0.3022962253483274E-01 +0.4479564337472618E+01
+0.9070461286666667E+00 +0.4483577966107033E+01 +0.3048689167992365E-01 +0.4483073062701041E+01
+0.9127151669708335E+00 +0.4487117062542677E+01 +0.3074569108156721E-01 +0.4486611587849786E+01
+0.9183842052750001E+00 +0.4490686143339309E+01 +0.3100604093437603E-01 +0.4490180090101734E+01
+0.9240532435791667E+00 +0.4494285388121336E+01 +0.3126796177631341E-01 +0.4493778748962919E+01
+0.9297222818833335E+00 +0.4497914978878772E+01 +0.3153147449935557E-01 +0.4497407746301447E+01
+0.9353913201875002E+00 +0.4501575100007315E+01 +0.3179660036065308E-01 +0.4501067266387183E+01
+0.9410603584916667E+00 +0.4505265938349707E+01 +0.3206336099422340E-01 +0.4504757495933140E+01
+0.9467293967958336E+00 +0.4508987683238308E+01 +0.3233177842320682E-01 +0.4508478624137722E+01
+0.9523984351000001E+00 +0.4512740526539067E+01 +0.3260187507272292E-01 +0.4512230842728560E+01
+0.9580674734041668E+00 +0.4516524662696868E+01 +0.3287367378336548E-01 +0.4516014346007613E+01
+0.9637365117083334E+00 +0.4520340288782361E+01 +0.3314719782537739E-01 +0.4519829330897817E+01
+0.9694055500125002E+00 +0.4524187604540336E+01 +0.3342247091355149E-01 +0.4523675996991098E+01
+0.9750745883166668E+00 +0.4528066812439710E+01 +0.3369951722290391E-01 +0.4527554546598239E+01
+0.9807436266208334E+00 +0.4531978117725219E+01 +0.3397836140517328E-01 +0.4531465184800153E+01
+0.9864126649250001E+00 +0.4535921728470894E+01 +0.3425902860620235E-01 +0.4535408119501231E+01
+0.9920817032291668E+00 +0.4539897855635417E+01 +0.3454154448426099E-01 +0.4539383561484209E+01
+0.9977507415333334E+00 +0.4543906713119448E+01 +0.3482593522937877E-01 +0.4543391724467168E+01
+0.1003419779837500E+01 +0.4547948517825033E+01 +0.3511222758375575E-01 +0.4547432825162778E+01
+0.1009088818141667E+01 +0.4552023489717195E+01 +0.3540044886333012E-01 +0.4551507083339202E+01
+0.1014757856445833E+01 +0.4556131851887839E+01 +0.3569062698058517E-01 +0.4555614721883831E+01
+0.1020426894750000E+01 +0.4560273830622101E+01 +0.3598279046868604E-01 +0.4559755966869000E+01
+0.1026095933054167E+01 +0.4564449655467238E+01 +0.3627696850704466E-01 +0.4563931047620492E+01
+0.1031764971358333E+01 +0.4568659559304248E+01 +0.3657319094841854E-01 +0.4568140196788622E+01
+0.1037434009662500E+01 +0.4572903778422376E+01 +0.3687148834766024E-01 +0.4572383650422174E+01
+0.1043103047966667E+01 +0.4577182552596625E+01 +0.3717189199224180E-01 +0.4576661648045275E+01
+0.1048772086270833E+01 +0.4581496125168490E+01 +0.3747443393469253E-01 +0.4580974432737601E+01
+0.1054441124575000E+01 +0.4585844743130098E+01 +0.3777914702709862E-01 +0.4585322251217616E+01
+0.1060110162879167E+01 +0.4590228657211962E+01 +0.3808606495782735E-01 +0.4589705353929721E+01
+0.1065779201183333E+01 +0.4594648121974549E+01 +0.3839522229065309E-01 +0.4594123995135034E+01
+0.1071448239487500E+01 +0.4599103395903922E+01 +0.3870665450648033E-01 +0.4598578433005967E+01
+0.1077117277791667E+01 +0.4603594741511700E+01 +0.3902039804787392E-01 +0.4603068929725448E+01
+0.1082786316095834E+01 +0.4608122425439599E+01 +0.3933649036662983E-01 +0.4607595751590250E+01
+0.1088455354400000E+01 +0.4612686718568894E+01 +0.3965496997464023E-01 +0.4612159169119472E+01
+0.1094124392704167E+01 +0.4617287896135038E+01 +0.3997587649833161E-01 +0.4616759457167849E+01
+0.1099793431008333E+01 +0.4621926237847874E+01 +0.4029925073698105E-01 +0.4621396895044655E+01
+0.1105462469312500E+01 +0.4626602028017750E+01 +0.4062513472524754E-01 +0.4626071766638431E+01
+0.1111131507616667E+01 +0.4631315555687941E+01 +0.4095357180028687E-01 +0.4630784360547855E+01
+0.1116800545920833E+01 +0.4636067114773843E+01 +0.4128460667385650E-01 +0.4635534970219141E+01
+0.1122469584225000E+01 +0.4640857004209384E+01 +0.4161828550985913E-01 +0.4640323894090711E+01
+0.1128138622529167E+01 +0.4645685528101154E+01 +0.4195465600781800E-01 +0.4645151435745212E+01
+0.1133807660833334E+01 +0.4650552995890815E+01 +0.4229376749283000E-01 +0.4650017904069841E+01
+0.1139476699137500E+01 +0.4655459722526379E+01 +0.4263567101259898E-01 +0.4654923613425026E+01
