# Energy (Ha), Re{Kerr} (degrees),  Im{Kerr} (degrees)
   0.000000000      0.8235992336E-09   0.000000000    
  0.7500000298E-03  0.8240622366E-09 -0.5521760566E-11
  0.1500000060E-02  0.8254199194E-09 -0.1084419722E-10
  0.2250000089E-02  0.8275895554E-09 -0.1578923285E-10
  0.3000000119E-02  0.8304454533E-09 -0.2021537074E-10
  0.3750000149E-02  0.8338362669E-09 -0.2403312993E-10
  0.4500000179E-02  0.8376040559E-09 -0.2719363944E-10
  0.5250000209E-02  0.8416039551E-09 -0.2969482798E-10
  0.6000000238E-02  0.8457076835E-09 -0.3156706875E-10
  0.6750000268E-02  0.8498096315E-09 -0.3286150663E-10
  0.7500000298E-02  0.8538327332E-09 -0.3364243316E-10
  0.8250000328E-02  0.8577217319E-09 -0.3398045999E-10
  0.9000000358E-02  0.8614403788E-09 -0.3394154720E-10
  0.9750000387E-02  0.8649701149E-09 -0.3358863839E-10
  0.1050000042E-01  0.8683033930E-09 -0.3297849498E-10
  0.1125000045E-01  0.8714422315E-09 -0.3215882746E-10
  0.1200000048E-01  0.8743942219E-09 -0.3117198707E-10
  0.1275000051E-01  0.8771724127E-09 -0.3005136424E-10
  0.1350000054E-01  0.8797883003E-09 -0.2882555562E-10
  0.1425000057E-01  0.8822597882E-09 -0.2751625187E-10
  0.1500000060E-01  0.8845998177E-09 -0.2614152759E-10
  0.1575000063E-01  0.8868256772E-09 -0.2471559093E-10
  0.1650000066E-01  0.8889509107E-09 -0.2324849113E-10
  0.1725000069E-01  0.8909895380E-09 -0.2174920105E-10
  0.1800000072E-01  0.8929558284E-09 -0.2022365317E-10
  0.1875000075E-01  0.8948608503E-09 -0.1867542263E-10
  0.1950000077E-01  0.8967179080E-09 -0.1710837593E-10
  0.2025000080E-01  0.8985359768E-09 -0.1552289122E-10
  0.2100000083E-01  0.9003253924E-09 -0.1391993888E-10
  0.2175000086E-01  0.9020955884E-09 -0.1229936576E-10
  0.2250000089E-01  0.9038551424E-09 -0.1066085874E-10
  0.2325000092E-01  0.9056122383E-09 -0.9003244241E-11
  0.2400000095E-01  0.9073749889E-09 -0.7324189069E-11
  0.2475000098E-01  0.9091507570E-09 -0.5621907452E-11
  0.2550000101E-01  0.9109457254E-09 -0.3893611351E-11
  0.2625000104E-01  0.9127677576E-09 -0.2137446017E-11
  0.2700000107E-01  0.9146221953E-09 -0.3494232540E-12
  0.2775000110E-01  0.9165149585E-09  0.1472854558E-11
  0.2850000113E-01  0.9184533770E-09  0.3333403387E-11
  0.2925000116E-01  0.9204436195E-09  0.5235183737E-11
  0.3000000119E-01  0.9224906017E-09  0.7182017827E-11
  0.3075000122E-01  0.9246022479E-09  0.9178159738E-11
  0.3150000125E-01  0.9267811047E-09  0.1122812991E-10
  0.3225000128E-01  0.9290350269E-09  0.1333580231E-10
  0.3300000131E-01  0.9313706366E-09  0.1550629738E-10
  0.3375000134E-01  0.9337933474E-09  0.1774407893E-10
  0.3450000137E-01  0.9363094757E-09  0.2005386129E-10
  0.3525000140E-01  0.9389247191E-09  0.2244195468E-10
  0.3600000143E-01  0.9416469413E-09  0.2491326476E-10
  0.3675000146E-01  0.9444819348E-09  0.2747478795E-10
  0.3750000149E-01  0.9474373167E-09  0.3013169599E-10
  0.3825000152E-01  0.9505194329E-09  0.3289156097E-10
  0.3900000155E-01  0.9537357159E-09  0.3576119073E-10
  0.3975000158E-01  0.9570944244E-09  0.3874776065E-10
  0.4050000161E-01  0.9606034796E-09  0.4185939403E-10
  0.4125000164E-01  0.9642703097E-09  0.4510513485E-10
  0.4200000167E-01  0.9681034500E-09  0.4849416054E-10
  0.4275000170E-01  0.9721143410E-09  0.5203467094E-10
  0.4350000173E-01  0.9763103339E-09  0.5573835219E-10
  0.4425000176E-01  0.9807021094E-09  0.5961532017E-10
  0.4500000179E-01  0.9852983819E-09  0.6367844906E-10
  0.4575000182E-01  0.9901120798E-09  0.6793918649E-10
  0.4650000185E-01  0.9951538385E-09  0.7241142303E-10
  0.4725000188E-01  0.1000434068E-08  0.7711030738E-10
  0.4800000191E-01  0.1005966921E-08  0.8205104810E-10
  0.4875000194E-01  0.1011764535E-08  0.8725032024E-10
  0.4950000197E-01  0.1017840738E-08  0.9272659557E-10
  0.5025000200E-01  0.1024209758E-08  0.9849896738E-10
  0.5100000203E-01  0.1030886885E-08  0.1045894195E-09
  0.5175000206E-01  0.1037887173E-08  0.1110206811E-09
  0.5250000209E-01  0.1045226592E-08  0.1178172252E-09
  0.5325000212E-01  0.1052924023E-08  0.1250063314E-09
  0.5400000215E-01  0.1060996039E-08  0.1326168334E-09
  0.5475000218E-01  0.1069460662E-08  0.1406812937E-09
  0.5550000221E-01  0.1078340013E-08  0.1492334797E-09
  0.5625000224E-01  0.1087650462E-08  0.1583124340E-09
  0.5700000226E-01  0.1097417775E-08  0.1679580376E-09
  0.5775000229E-01  0.1107660316E-08  0.1782164946E-09
  0.5850000232E-01  0.1118402550E-08  0.1891361257E-09
  0.5925000235E-01  0.1129667113E-08  0.2007718805E-09
  0.6000000238E-01  0.1141478507E-08  0.2131826201E-09
  0.6075000241E-01  0.1153860248E-08  0.2264335091E-09
  0.6150000244E-01  0.1166838372E-08  0.2405962069E-09
  0.6225000247E-01  0.1180437459E-08  0.2557500277E-09
  0.6300000250E-01  0.1194681666E-08  0.2719814245E-09
  0.6375000253E-01  0.1209596383E-08  0.2893864601E-09
  0.6450000256E-01  0.1225203790E-08  0.3080720545E-09
  0.6525000259E-01  0.1241525678E-08  0.3281548358E-09
  0.6600000262E-01  0.1258583249E-08  0.3497648225E-09
  0.6675000265E-01  0.1276390136E-08  0.3730474613E-09
  0.6750000268E-01  0.1294958824E-08  0.3981618548E-09
  0.6825000271E-01  0.1314296047E-08  0.4252856780E-09
  0.6900000274E-01  0.1334397887E-08  0.4546169155E-09
  0.6975000277E-01  0.1355253237E-08  0.4863744886E-09
  0.7050000280E-01  0.1376832955E-08  0.5208029108E-09
  0.7125000283E-01  0.1399097817E-08  0.5581726686E-09
  0.7200000286E-01  0.1421981076E-08  0.5987836629E-09
  0.7275000289E-01  0.1445390475E-08  0.6429699954E-09
  0.7350000292E-01  0.1469199835E-08  0.6910980313E-09
  0.7425000295E-01  0.1493238144E-08  0.7435747133E-09
  0.7500000298E-01  0.1517278909E-08  0.8008436635E-09
  0.7575000301E-01  0.1541031497E-08  0.8633887574E-09
  0.7650000304E-01  0.1564117759E-08  0.9317326365E-09
  0.7725000307E-01  0.1586054978E-08  0.1006433885E-08
  0.7800000310E-01  0.1606238409E-08  0.1088075049E-08
  0.7875000313E-01  0.1623905814E-08  0.1177254867E-08
  0.7950000316E-01  0.1638113448E-08  0.1274562386E-08
  0.8025000319E-01  0.1647699031E-08  0.1380548916E-08
  0.8100000322E-01  0.1651254746E-08  0.1495673740E-08
  0.8175000325E-01  0.1647091181E-08  0.1620248784E-08
  0.8250000328E-01  0.1633221268E-08  0.1754342936E-08
  0.8325000331E-01  0.1607359814E-08  0.1897672115E-08
  0.8400000334E-01  0.1566954321E-08  0.2049464062E-08
  0.8475000337E-01  0.1509271728E-08  0.2208295805E-08
  0.8550000340E-01  0.1431549317E-08  0.2371935172E-08
  0.8625000343E-01  0.1331243093E-08  0.2537206207E-08
  0.8700000346E-01  0.1206363437E-08  0.2699916670E-08
  0.8775000349E-01  0.1055902614E-08  0.2854928828E-08
  0.8850000352E-01  0.8802850286E-09  0.2996414251E-08
  0.8925000355E-01  0.6817507531E-09  0.3118345107E-08
  0.9000000358E-01  0.4645346485E-09  0.3215206207E-08
  0.9075000361E-01  0.2347047206E-09  0.3282822654E-08
  0.9150000364E-01 -0.4092362903E-12  0.3319102560E-08
  0.9225000367E-01 -0.2331331582E-09  0.3324473813E-08
  0.9300000370E-01 -0.4565105535E-09  0.3301820325E-08
  0.9375000373E-01 -0.6651986659E-09  0.3255921718E-08
  0.9450000376E-01 -0.8559629765E-09  0.3192553841E-08
  0.9525000378E-01 -0.1027670397E-08  0.3117549709E-08
  0.9600000381E-01 -0.1180881634E-08  0.3036070119E-08
  0.9675000384E-01 -0.1317261127E-08  0.2952217193E-08
  0.9750000387E-01 -0.1438997184E-08  0.2868972834E-08
  0.9825000390E-01 -0.1548359507E-08  0.2788342953E-08
  0.9900000393E-01 -0.1647410904E-08  0.2711612454E-08
  0.9975000396E-01 -0.1737869795E-08  0.2639632732E-08
  0.1005000040     -0.1821089499E-08  0.2573106245E-08
  0.1012500040     -0.1898161709E-08  0.2512842687E-08
  0.1020000041     -0.1970118226E-08  0.2459944820E-08
  0.1027500041     -0.2038221418E-08  0.2415885344E-08
  0.1035000041     -0.2104278225E-08  0.2382431501E-08
  0.1042500041     -0.2170919116E-08  0.2361422945E-08
  0.1050000042     -0.2241773404E-08  0.2354419209E-08
  0.1057500042     -0.2321505715E-08  0.2362275555E-08
  0.1065000042     -0.2415698079E-08  0.2384692773E-08
  0.1072500043     -0.2530584019E-08  0.2419783697E-08
  0.1080000043     -0.2672624745E-08  0.2463679387E-08
  0.1087500043     -0.2847907801E-08  0.2510207910E-08
  0.1095000044     -0.3061332969E-08  0.2550732544E-08
  0.1102500044     -0.3315595596E-08  0.2574289010E-08
  0.1110000044     -0.3610081770E-08  0.2568189232E-08
  0.1117500044     -0.3939935083E-08  0.2519235038E-08
  0.1125000045     -0.4295676532E-08  0.2415486364E-08
  0.1132500045     -0.4663757299E-08  0.2248279575E-08
  0.1140000045     -0.5028200566E-08  0.2013896661E-08
  0.1147500046     -0.5373067324E-08  0.1714206377E-08
  0.1155000046     -0.5685009672E-08  0.1355839955E-08
  0.1162500046     -0.5954966314E-08  0.9480123625E-09
  0.1170000046     -0.6178259580E-08  0.4997482470E-09
  0.1177500047     -0.6352983011E-08  0.1762077824E-10
  0.1185000047     -0.6477331218E-08 -0.4949990951E-09
  0.1192500047     -0.6547014904E-08 -0.1036823268E-08
  0.1200000048     -0.6553883475E-08 -0.1606094649E-08
  0.1207500048     -0.6486354084E-08 -0.2197582357E-08
  0.1215000048     -0.6331543109E-08 -0.2800223031E-08
  0.1222500049     -0.6078463683E-08 -0.3396165046E-08
  0.1230000049     -0.5721445662E-08 -0.3961512637E-08
  0.1237500049     -0.5262989925E-08 -0.4468638793E-08
  0.1245000049     -0.4715444724E-08 -0.4889704505E-08
  0.1252500050     -0.4101043955E-08 -0.5200799114E-08
  0.1260000050     -0.3450066376E-08 -0.5385969036E-08
  0.1267500050     -0.2797229767E-08 -0.5440212340E-08
  0.1275000051     -0.2176918725E-08 -0.5370598911E-08
  0.1282500051     -0.1618340268E-08 -0.5195060731E-08
  0.1290000051     -0.1141821507E-08 -0.4939097109E-08
  0.1297500052     -0.7571642644E-09 -0.4631309520E-08
  0.1305000052     -0.4642249444E-09 -0.4299027926E-08
  0.1312500052     -0.2551990860E-09 -0.3965071661E-08
  0.1320000052     -0.1176559317E-09 -0.3646142045E-08
  0.1327500053     -0.3742709935E-10 -0.3352728573E-08
  0.1335000053     -0.7864579217E-12 -0.3090028496E-08
  0.1342500053      0.4259024840E-11 -0.2859325161E-08
  0.1350000054     -0.1256728759E-10 -0.2659357649E-08
  0.1357500054     -0.4381806907E-10 -0.2487458073E-08
  0.1365000054     -0.8404669269E-10 -0.2340366738E-08
  0.1372500055     -0.1294264353E-09 -0.2214751459E-08
  0.1380000055     -0.1773662513E-09 -0.2107509812E-08
  0.1387500055     -0.2261769612E-09 -0.2015911083E-08
  0.1395000055     -0.2748008519E-09 -0.1937654317E-08
  0.1402500056     -0.3225981888E-09 -0.1870864624E-08
  0.1410000056     -0.3691813749E-09 -0.1814065916E-08
  0.1417500056     -0.4142829724E-09 -0.1766137186E-08
  0.1425000057     -0.4576464776E-09 -0.1726257742E-08
  0.1432500057     -0.4989379631E-09 -0.1693848382E-08
  0.1440000057     -0.5376605837E-09 -0.1668484489E-08
  0.1447500058     -0.5730933490E-09 -0.1649805142E-08
  0.1455000058     -0.6042438759E-09 -0.1637388529E-08
  0.1462500058     -0.6298378956E-09 -0.1630594616E-08
  0.1470000058     -0.6483595227E-09 -0.1628391928E-08
  0.1477500059     -0.6581747591E-09 -0.1629172226E-08
  0.1485000059     -0.6577398675E-09 -0.1630593340E-08
  0.1492500059     -0.6459060737E-09 -0.1629494932E-08
  0.1500000060     -0.6222816034E-09 -0.1621947398E-08
  0.1507500060     -0.5875902151E-09 -0.1603455594E-08
  0.1515000060     -0.5439450772E-09 -0.1569321251E-08
  0.1522500060     -0.4949557114E-09 -0.1515103069E-08
  0.1530000061     -0.4456658509E-09 -0.1437070222E-08
  0.1537500061     -0.4023415551E-09 -0.1332564587E-08
  0.1545000061     -0.3722377362E-09 -0.1200254226E-08
  0.1552500062     -0.3634049096E-09 -0.1040298137E-08
  0.1560000062     -0.3845825039E-09 -0.8545666287E-09
  0.1567500062     -0.4450932792E-09 -0.6470103778E-09
  0.1575000063     -0.5545828047E-09 -0.4242478692E-09
  0.1582500063     -0.7223738843E-09 -0.1963096294E-09
  0.1590000063     -0.9562621243E-09  0.2272945678E-10
  0.1597500063     -0.1260692365E-08  0.2145500660E-09
  0.1605000064     -0.1634526706E-08  0.3573226962E-09
  0.1612500064     -0.2068917813E-08  0.4276943131E-09
  0.1620000064     -0.2546059788E-08  0.4040638505E-09
  0.1627500065     -0.3039643877E-08  0.2706307092E-09
  0.1635000065     -0.3517424673E-08  0.2117276562E-10
  0.1642500065     -0.3945629440E-08 -0.3386772897E-09
  0.1650000066     -0.4294129780E-08 -0.7915576438E-09
  0.1657500066     -0.4540956513E-08 -0.1311022833E-08
  0.1665000066     -0.4674912007E-08 -0.1865870986E-08
  0.1672500066     -0.4695807255E-08 -0.2424914416E-08
  0.1680000067     -0.4612658014E-08 -0.2960887341E-08
  0.1687500067     -0.4440719511E-08 -0.3452830031E-08
  0.1695000067     -0.4198310650E-08 -0.3886819375E-08
  0.1702500068     -0.3904145749E-08 -0.4255422830E-08
  0.1710000068     -0.3575513884E-08 -0.4556418312E-08
  0.1717500068     -0.3227311709E-08 -0.4791288727E-08
  0.1725000069     -0.2871769718E-08 -0.4963839620E-08
  0.1732500069     -0.2518639826E-08 -0.5079116549E-08
  0.1740000069     -0.2175598383E-08 -0.5142692374E-08
  0.1747500069     -0.1848725714E-08 -0.5160278631E-08
  0.1755000070     -0.1542900671E-08 -0.5137597357E-08
  0.1762500070     -0.1262058474E-08 -0.5080420482E-08
  0.1770000070     -0.1009284227E-08 -0.4994655350E-08
  0.1777500071     -0.7867676195E-09 -0.4886395185E-08
  0.1785000071     -0.5956595372E-09 -0.4761868754E-08
  0.1792500071     -0.4359549749E-09 -0.4627243533E-08
  0.1800000072     -0.3064542197E-09 -0.4488336875E-08
  0.1807500072     -0.2048700638E-09 -0.4350291809E-08
  0.1815000072     -0.1280790994E-09 -0.4217306063E-08
  0.1822500072     -0.7244896044E-10 -0.4092490623E-08
  0.1830000073     -0.3418787940E-10 -0.3977860020E-08
  0.1837500073     -0.9644486832E-11 -0.3874439417E-08
  0.1845000073      0.4483972725E-11 -0.3782457685E-08
  0.1852500074      0.1103249664E-10 -0.3701553702E-08
  0.1860000074      0.1232922267E-10 -0.3630977462E-08
  0.1867500074      0.1021074089E-10 -0.3569757833E-08
  0.1875000075      0.6074057871E-11 -0.3516828074E-08
  0.1882500075      0.9492679031E-12 -0.3471126323E-08
  0.1890000075     -0.4440938201E-11 -0.3431642446E-08
  0.1897500075     -0.9606168863E-11 -0.3397458562E-08
  0.1905000076     -0.1423533760E-10 -0.3367763426E-08
  0.1912500076     -0.1814846558E-10 -0.3341851895E-08
  0.1920000076     -0.2125760512E-10 -0.3319123828E-08
  0.1927500077     -0.2353956443E-10 -0.3299073405E-08
  0.1935000077     -0.2501274047E-10 -0.3281275665E-08
  0.1942500077     -0.2572110460E-10 -0.3265380067E-08
  0.1950000077     -0.2572448702E-10 -0.3251095065E-08
  0.1957500078     -0.2508882775E-10 -0.3238181161E-08
  0.1965000078     -0.2388079390E-10 -0.3226443320E-08
  0.1972500078     -0.2216716175E-10 -0.3215719331E-08
  0.1980000079     -0.2000998498E-10 -0.3205877300E-08
  0.1987500079     -0.1746687140E-10 -0.3196808953E-08
  0.1995000079     -0.1458938325E-10 -0.3188425992E-08
  0.2002500080     -0.1142175819E-10 -0.3180661636E-08
  0.2010000080     -0.8004008049E-11 -0.3173458552E-08
  0.2017500080     -0.4368364053E-11 -0.3166775332E-08
  0.2025000080     -0.5402435680E-12 -0.3160581418E-08
  0.2032500081      0.3463360906E-11 -0.3154859029E-08
  0.2040000081      0.7631896466E-11 -0.3149597540E-08
  0.2047500081      0.1196720756E-10 -0.3144797151E-08
  0.2055000082      0.1648461168E-10 -0.3140469982E-08
  0.2062500082      0.2121443555E-10 -0.3136632536E-08
  0.2070000082      0.2621013987E-10 -0.3133311364E-08
  0.2077500083      0.3154918405E-10 -0.3130531745E-08
  0.2085000083      0.3734277141E-10 -0.3128315644E-08
  0.2092500083      0.4374222635E-10 -0.3126674844E-08
  0.2100000083      0.5093992711E-10 -0.3125588155E-08
  0.2107500084      0.5917653535E-10 -0.3124996112E-08
  0.2115000084      0.6872836149E-10 -0.3124759656E-08
  0.2122500084      0.7989718776E-10 -0.3124649262E-08
  0.2130000085      0.9297795120E-10 -0.3124310348E-08
  0.2137500085      0.1082154383E-09 -0.3123250300E-08
  0.2145000085      0.1257501688E-09 -0.3120839518E-08
  0.2152500086      0.1455544589E-09 -0.3116334345E-08
  0.2160000086      0.1673769368E-09 -0.3108923493E-08
  0.2167500086      0.1907065863E-09 -0.3097810836E-08
  0.2175000086      0.2147632250E-09 -0.3082305618E-08
  0.2182500087      0.2385275952E-09 -0.3061919924E-08
  0.2190000087      0.2608141363E-09 -0.3036462645E-08
  0.2197500087      0.2803672582E-09 -0.3006085181E-08
  0.2205000088      0.2959903735E-09 -0.2971310982E-08
  0.2212500088      0.3066729208E-09 -0.2932997526E-08
  0.2220000088      0.3116912469E-09 -0.2892249018E-08
  0.2227500089      0.3106775753E-09 -0.2850304731E-08
  0.2235000089      0.3036246565E-09 -0.2808397811E-08
  0.2242500089      0.2908458184E-09 -0.2767646407E-08
  0.2250000089      0.2728917861E-09 -0.2728965136E-08
  0.2257500090      0.2504515918E-09 -0.2693022429E-08
  0.2265000090      0.2242622225E-09 -0.2660247110E-08
  0.2272500090      0.1950297442E-09 -0.2630851032E-08
  0.2280000091      0.1633814040E-09 -0.2604884935E-08
  0.2287500091      0.1298321648E-09 -0.2582283549E-08
  0.2295000091      0.9478072606E-10 -0.2562926283E-08
  0.2302500091      0.5851240627E-10 -0.2546676190E-08
  0.2310000092      0.2121951333E-10 -0.2533420992E-08
  0.2317500092     -0.1696601728E-10 -0.2523111931E-08
  0.2325000092     -0.5594389009E-10 -0.2515764525E-08
  0.2332500093     -0.9559884593E-10 -0.2511478432E-08
  0.2340000093     -0.1357652284E-09 -0.2510420546E-08
  0.2347500093     -0.1761785806E-09 -0.2512814707E-08
  0.2355000094     -0.2164521958E-09 -0.2518882600E-08
  0.2362500094     -0.2560514760E-09 -0.2528804313E-08
  0.2370000094     -0.2943005002E-09 -0.2542641642E-08
  0.2377500094     -0.3304157753E-09 -0.2560273138E-08
  0.2385000095     -0.3635765689E-09 -0.2581329097E-08
  0.2392500095     -0.3930164139E-09 -0.2605174874E-08
  0.2400000095     -0.4181363900E-09 -0.2630918344E-08
  0.2407500096     -0.4385973858E-09 -0.2657482485E-08
  0.2415000096     -0.4543793870E-09 -0.2683709260E-08
  0.2422500096     -0.4657854653E-09 -0.2708488495E-08
  0.2430000097     -0.4734020844E-09 -0.2730847265E-08
  0.2437500097     -0.4780130651E-09 -0.2750039696E-08
  0.2445000097     -0.4805052995E-09 -0.2765567896E-08
  0.2452500097     -0.4817800251E-09 -0.2777177815E-08
  0.2460000098     -0.4826888754E-09 -0.2784814329E-08
  0.2467500098     -0.4839930987E-09 -0.2788575083E-08
  0.2475000098     -0.4863482194E-09 -0.2788657071E-08
  0.2482500099     -0.4903048828E-09 -0.2785314299E-08
  0.2490000099     -0.4963230452E-09 -0.2778822959E-08
  0.2497500099     -0.5047883883E-09 -0.2769463053E-08
  0.2505000100     -0.5160351418E-09 -0.2757495306E-08
  0.2512500100     -0.5303629377E-09 -0.2743162705E-08
  0.2520000100     -0.5480539488E-09 -0.2726687993E-08
  0.2527500100     -0.5693899199E-09 -0.2708273501E-08
  0.2535000101     -0.5946645012E-09 -0.2688103014E-08
  0.2542500101     -0.6241897104E-09 -0.2666361943E-08
  0.2550000101     -0.6583136245E-09 -0.2643225056E-08
  0.2557500102     -0.6974184452E-09 -0.2618886256E-08
  0.2565000102     -0.7419335288E-09 -0.2593559966E-08
  0.2572500102     -0.7923406259E-09 -0.2567488407E-08
  0.2580000103     -0.8491719695E-09 -0.2540974872E-08
  0.2587500103     -0.9130224907E-09 -0.2514376458E-08
  0.2595000103     -0.9845446434E-09 -0.2488138752E-08
  0.2602500103     -0.1064445245E-08 -0.2462818783E-08
  0.2610000104     -0.1153489005E-08 -0.2439090309E-08
  0.2617500104     -0.1252473683E-08 -0.2417802590E-08
  0.2625000104     -0.1362223222E-08 -0.2399984691E-08
  0.2632500105     -0.1483560533E-08 -0.2386883044E-08
  0.2640000105     -0.1617277903E-08 -0.2379981166E-08
  0.2647500105     -0.1764083516E-08 -0.2381043569E-08
  0.2655000106     -0.1924560615E-08 -0.2392117460E-08
  0.2662500106     -0.2099116507E-08 -0.2415533102E-08
  0.2670000106     -0.2287922088E-08 -0.2453913671E-08
  0.2677500106     -0.2490859656E-08 -0.2510168924E-08
  0.2685000107     -0.2707486673E-08 -0.2587482171E-08
  0.2692500107     -0.2936996680E-08 -0.2689313534E-08
  0.2700000107     -0.3178147838E-08 -0.2819454827E-08
  0.2707500108     -0.3429193983E-08 -0.2982053345E-08
