# Macroscopic dielectric function epsm
#
# Momentum transfer Q=G+q in lattice cooridnates
# G:   0   0   0
# q:   0.0000000   0.0000000   0.0000000
# Momentum transfer Q=G+q in Cartesian cooridnates
# G:   0.0000000   0.0000000   0.0000000
# q:   0.0000000   0.0000000   0.0000000
# Norm2(G+q)   0.0000000
#
# Energy scale=   27.211384
# Used broadening in scaled energy units:    0.200001
#
# Number of k-points=      27
# Unit cell volume [au]=  110.092661
# Coulomb potential v(Q) [au]=          0.000000
#
#             Frequency                Re(epsm)                Im(epsm)       Re(epsm) form KKT
+0.0000000000000000E+00 +0.1256581795364488E+01 +0.3119187792533189E-02 +0.1508281525705958E+01
+0.5442276772000001E+00 +0.1265366256427439E+01 +0.3343447258713241E-02 +0.1506943911134769E+01
+0.1088455354400000E+01 +0.1274794711198498E+01 +0.3593498014842396E-02 +0.1507460711385184E+01
+0.1632683031600000E+01 +0.1284942791097816E+01 +0.3873554179113266E-02 +0.1509839040208781E+01
+0.2176910708800000E+01 +0.1295898765453619E+01 +0.4188746850239635E-02 +0.1513542242916853E+01
+0.2721138386000000E+01 +0.1307766358048652E+01 +0.4545379298795215E-02 +0.1518700413158271E+01
+0.3265366063200000E+01 +0.1320668367721261E+01 +0.4951270553348029E-02 +0.1525330489472019E+01
+0.3809593740400000E+01 +0.1334751379198041E+01 +0.5416224781421890E-02 +0.1533535228917522E+01
+0.4353821417600001E+01 +0.1350191974980426E+01 +0.5952682944621579E-02 +0.1543449373037592E+01
+0.4898049094800000E+01 +0.1367205049351210E+01 +0.6576643922043724E-02 +0.1555257182864499E+01
+0.5442276772000000E+01 +0.1386055122782771E+01 +0.7308993087514959E-02 +0.1569197216199238E+01
+0.5986504449200001E+01 +0.1407072031726820E+01 +0.8177462907576814E-02 +0.1585577752500426E+01
+0.6530732126400000E+01 +0.1430673156517506E+01 +0.9219602933158955E-02 +0.1604797518376383E+01
+0.7074959803600001E+01 +0.1457395697396059E+01 +0.1048741730398175E-01 +0.1627376874719517E+01
+0.7619187480800001E+01 +0.1487944907031711E+01 +0.1205486863297326E-01 +0.1654004285870708E+01
+0.8163415157999999E+01 +0.1523268664843932E+01 +0.1403054919147025E-01 +0.1685607747100386E+01
+0.8707642835200001E+01 +0.1564677628597830E+01 +0.1658022679599688E-01 +0.1723468360957258E+01
+0.9251870512400002E+01 +0.1614048982027579E+01 +0.1996970282866940E-01 +0.1769409116507643E+01
+0.9796098189600000E+01 +0.1674195443931611E+01 +0.2465368100525367E-01 +0.1826126670058109E+01
+0.1034032586680000E+02 +0.1749595531447504E+01 +0.3148359398781181E-01 +0.1897817897646991E+01
+0.1088455354400000E+02 +0.1848034152636019E+01 +0.4228808299368145E-01 +0.1991478439393372E+01
+0.1142878122120000E+02 +0.1985081963354950E+01 +0.6202799136003880E-01 +0.2119887972459750E+01
+0.1197300889840000E+02 +0.2200813684551304E+01 +0.1120894627439299E+00 +0.2307141430221276E+01
+0.1251723657560000E+02 +0.2598802595899929E+01 +0.4567797885735747E+00 +0.2391245911865099E+01
+0.1306146425280000E+02 +0.2184184362967805E+01 +0.2254553107001884E-02 +0.2761276200533842E+01
+0.1360569193000000E+02 +0.3571716361090616E+01 +0.5959576274083780E+00 +0.3637605894586588E+01
+0.1414991960720000E+02 +0.4189752642630062E+01 +0.4302929951830672E+01 +0.2900416130975186E+01
+0.1469414728440000E+02 -0.9571975917726742E+00 +0.4471009334747040E+01 +0.4285926424931799E+00
+0.1523837496160000E+02 -0.2847723451624714E+00 +0.6647794381434809E+00 -0.2509047242857791E+00
+0.1578260263880000E+02 +0.6202436533797845E+00 +0.5811685596359906E+00 +0.5328854390020983E+00
+0.1632683031600000E+02 +0.1184089237561220E+01 +0.3799202145559879E+00 +0.1056462408174249E+01
+0.1687105799320000E+02 +0.1839476688502487E+01 +0.1325611535461597E+01 +0.1169411285812343E+01
+0.1741528567040000E+02 +0.9691948652809625E+00 +0.1287938097807426E+01 +0.8757067633788620E+00
+0.1795951334760000E+02 +0.1466102240452715E+00 +0.1257198804222172E+01 +0.6365619735004269E+00
+0.1850374102480000E+02 +0.4944072988639319E+00 +0.7905717239636547E+00 +0.5703178891485701E+00
+0.1904796870200000E+02 +0.4193075309197757E+00 +0.6966268171129004E+00 +0.7057581432858808E+00
+0.1959219637920000E+02 +0.2467132200530938E+00 +0.8813385916378240E+00 +0.7016586341051214E+00
+0.2013642405640000E+02 +0.1027567366923454E+01 +0.3939490424446175E+00 +0.8891584113630362E+00
+0.2068065173360000E+02 +0.1754698928896599E+01 +0.1165872804533620E+01 +0.1064495997105967E+01
+0.2122487941080000E+02 -0.1722555152839636E+01 +0.2195044220895656E+01 +0.3120945584582625E+00
+0.2176910708800000E+02 -0.4487064771818138E+00 +0.4299236980844736E+00 -0.6922415851511965E-01
+0.2231333476520000E+02 -0.1508484476394973E+00 +0.8006744052539274E+00 +0.9465069632596357E-01
+0.2285756244240000E+02 -0.2506722898028077E+00 +0.3997059104076386E+00 +0.6173161210095035E-02
+0.2340179011960000E+02 +0.1108597517860512E-02 +0.9797954982166399E-01 +0.1322468292543130E+00
+0.2394601779680000E+02 +0.1810592788948676E+00 +0.5245651130282102E-01 +0.2949539460390503E+00
+0.2449024547400000E+02 +0.2979254306363365E+00 +0.3687487190889614E-01 +0.4029064086102421E+00
+0.2503447315120000E+02 +0.3871125930864035E+00 +0.3045848722244891E-01 +0.4825930724296167E+00
+0.2557870082840000E+02 +0.4684129669044004E+00 +0.3272782617283017E-01 +0.5501574938596179E+00
+0.2612292850560000E+02 +0.5743794580790278E+00 +0.8635599446361628E-01 +0.5702023259876705E+00
+0.2666715618280000E+02 +0.3823976314100641E+00 +0.1285277228302147E+00 +0.5690943976783233E+00
