# Macroscopic dielectric function epsm
#
# Momentum transfer Q=G+q in lattice cooridnates
# G:   0   0   0
# q:   0.0000000   0.0000000   0.0000000
# Momentum transfer Q=G+q in Cartesian cooridnates
# G:   0.0000000   0.0000000   0.0000000
# q:   0.0000000   0.0000000   0.0000000
# Norm2(G+q)   0.0000000
#
# Energy scale=   27.211384
# Used broadening in scaled energy units:    0.190480
#
# Number of k-points=      27
# Unit cell volume [au]=  110.090925
# Coulomb potential v(Q) [au]=          0.000000
#
#             Frequency                Re(epsm)                Im(epsm)       Re(epsm) form KKT
+0.0000000000000000E+00 +0.1648619245060132E+01 -0.4836853452087644E-30 +0.1556768840267544E+01
+0.2267615321666667E-01 +0.1648620026182733E+01 +0.1312809071163584E-04 +0.1556765797973030E+01
+0.4535230643333334E-01 +0.1648622369563712E+01 +0.2625640299761168E-04 +0.1556768189445098E+01
+0.6802845965000001E-01 +0.1648626275242592E+01 +0.3938515844268657E-04 +0.1556772379679179E+01
+0.9070461286666667E-01 +0.1648631743285247E+01 +0.5251457865246963E-04 +0.1556777276909505E+01
+0.1133807660833333E+00 +0.1648638773783907E+01 +0.6564488526383263E-04 +0.1556783866183642E+01
+0.1360569193000000E+00 +0.1648647366857158E+01 +0.7877629995534598E-04 +0.1556791842308354E+01
+0.1587330725166667E+00 +0.1648657522649952E+01 +0.9190904445770712E-04 +0.1556801301288139E+01
+0.1814092257333333E+00 +0.1648669241333611E+01 +0.1050433405641768E-03 +0.1556812207191708E+01
+0.2040853789500000E+00 +0.1648682523105837E+01 +0.1181794101410209E-03 +0.1556824571210404E+01
+0.2267615321666667E+00 +0.1648697368190718E+01 +0.1313174751379646E-03 +0.1556838389791430E+01
+0.2494376853833334E+00 +0.1648713776838743E+01 +0.1444577575986407E-03 +0.1556853664226638E+01
+0.2721138386000000E+00 +0.1648731749326811E+01 +0.1576004796710612E-03 +0.1556870394412359E+01
+0.2947899918166667E+00 +0.1648751285958244E+01 +0.1707458636180925E-03 +0.1556888580727227E+01
+0.3174661450333334E+00 +0.1648772387062802E+01 +0.1838941318279408E-03 +0.1556908223451309E+01
+0.3401422982500000E+00 +0.1648795052996699E+01 +0.1970455068246495E-03 +0.1556929322933098E+01
+0.3628184514666667E+00 +0.1648819284142617E+01 +0.2102002112786172E-03 +0.1556951879537399E+01
+0.3854946046833334E+00 +0.1648845080909730E+01 +0.2233584680171126E-03 +0.1556975893659170E+01
+0.4081707579000001E+00 +0.1648872443733715E+01 +0.2365205000348215E-03 +0.1557001365718772E+01
+0.4308469111166667E+00 +0.1648901373076780E+01 +0.2496865305044008E-03 +0.1557028296162950E+01
+0.4535230643333333E+00 +0.1648931869427682E+01 +0.2628567827870512E-03 +0.1557056685464345E+01
+0.4761992175500001E+00 +0.1648963933301749E+01 +0.2760314804431060E-03 +0.1557086534121519E+01
+0.4988753707666667E+00 +0.1648997565240907E+01 +0.2892108472426473E-03 +0.1557117842658897E+01
+0.5215515239833334E+00 +0.1649032765813707E+01 +0.3023951071761260E-03 +0.1557150611626759E+01
+0.5442276772000001E+00 +0.1649069535615345E+01 +0.3155844844650169E-03 +0.1557184841601241E+01
+0.5669038304166668E+00 +0.1649107875267697E+01 +0.3287792035724919E-03 +0.1557220533184353E+01
+0.5895799836333334E+00 +0.1649147785419345E+01 +0.3419794892141120E-03 +0.1557257687003988E+01
+0.6122561368500001E+00 +0.1649189266745608E+01 +0.3551855663685491E-03 +0.1557296303713953E+01
+0.6349322900666667E+00 +0.1649232319948576E+01 +0.3683976602883305E-03 +0.1557336383993991E+01
+0.6576084432833335E+00 +0.1649276945757139E+01 +0.3816159965106044E-03 +0.1557377928549812E+01
+0.6802845965000001E+00 +0.1649323144927026E+01 +0.3948408008679426E-03 +0.1557420938113123E+01
+0.7029607497166668E+00 +0.1649370918240837E+01 +0.4080722994991628E-03 +0.1557465413441664E+01
+0.7256369029333334E+00 +0.1649420266508081E+01 +0.4213107188601827E-03 +0.1557511355319240E+01
+0.7483130561500001E+00 +0.1649471190565219E+01 +0.4345562857349107E-03 +0.1557558764555760E+01
+0.7709892093666668E+00 +0.1649523691275694E+01 +0.4478092272461524E-03 +0.1557607641987276E+01
+0.7936653625833334E+00 +0.1649577769529981E+01 +0.4610697708665663E-03 +0.1557657988476019E+01
+0.8163415158000001E+00 +0.1649633426245624E+01 +0.4743381444296428E-03 +0.1557709804910447E+01
+0.8390176690166667E+00 +0.1649690662367283E+01 +0.4876145761407209E-03 +0.1557763092205277E+01
+0.8616938222333335E+00 +0.1649749478866775E+01 +0.5008992945880393E-03 +0.1557817851301542E+01
+0.8843699754500001E+00 +0.1649809876743123E+01 +0.5141925287538303E-03 +0.1557874083166623E+01
+0.9070461286666667E+00 +0.1649871857022603E+01 +0.5274945080254376E-03 +0.1557931788794310E+01
+0.9297222818833335E+00 +0.1649935420758792E+01 +0.5408054622064865E-03 +0.1557990969204835E+01
+0.9523984351000001E+00 +0.1650000569032617E+01 +0.5541256215280891E-03 +0.1558051625444933E+01
+0.9750745883166668E+00 +0.1650067302952410E+01 +0.5674552166600889E-03 +0.1558113758587886E+01
+0.9977507415333334E+00 +0.1650135623653958E+01 +0.5807944787223490E-03 +0.1558177369733580E+01
+0.1020426894750000E+01 +0.1650205532300557E+01 +0.5941436392960895E-03 +0.1558242460008554E+01
+0.1043103047966667E+01 +0.1650277030083070E+01 +0.6075029304352533E-03 +0.1558309030566055E+01
+0.1065779201183333E+01 +0.1650350118219981E+01 +0.6208725846779354E-03 +0.1558377082586098E+01
+0.1088455354400000E+01 +0.1650424797957454E+01 +0.6342528350578503E-03 +0.1558446617275520E+01
+0.1111131507616667E+01 +0.1650501070569393E+01 +0.6476439151158439E-03 +0.1558517635868039E+01
+0.1133807660833334E+01 +0.1650578937357504E+01 +0.6610460589114661E-03 +0.1558590139624315E+01
+0.1156483814050000E+01 +0.1650658399651354E+01 +0.6744595010345808E-03 +0.1558664129832009E+01
+0.1179159967266667E+01 +0.1650739458808439E+01 +0.6878844766170338E-03 +0.1558739607805853E+01
+0.1201836120483333E+01 +0.1650822116214244E+01 +0.7013212213443727E-03 +0.1558816574887704E+01
+0.1224512273700000E+01 +0.1650906373282316E+01 +0.7147699714676203E-03 +0.1558895032446616E+01
+0.1247188426916667E+01 +0.1650992231454324E+01 +0.7282309638151026E-03 +0.1558974981878908E+01
+0.1269864580133333E+01 +0.1651079692200137E+01 +0.7417044358043335E-03 +0.1559056424608227E+01
+0.1292540733350000E+01 +0.1651168757017885E+01 +0.7551906254539568E-03 +0.1559139362085620E+01
+0.1315216886566667E+01 +0.1651259427434042E+01 +0.7686897713957443E-03 +0.1559223795789610E+01
+0.1337893039783334E+01 +0.1651351705003488E+01 +0.7822021128866586E-03 +0.1559309727226261E+01
+0.1360569193000000E+01 +0.1651445591309593E+01 +0.7957278898209730E-03 +0.1559397157929256E+01
+0.1383245346216667E+01 +0.1651541087964290E+01 +0.8092673427424544E-03 +0.1559486089459972E+01
+0.1405921499433334E+01 +0.1651638196608153E+01 +0.8228207128566167E-03 +0.1559576523407556E+01
+0.1428597652650000E+01 +0.1651736918910475E+01 +0.8363882420430234E-03 +0.1559668461389005E+01
+0.1451273805866667E+01 +0.1651837256569352E+01 +0.8499701728676722E-03 +0.1559761905049246E+01
+0.1473949959083333E+01 +0.1651939211311762E+01 +0.8635667485954409E-03 +0.1559856856061211E+01
+0.1496626112300000E+01 +0.1652042784893652E+01 +0.8771782132026004E-03 +0.1559953316125928E+01
+0.1519302265516667E+01 +0.1652147979100017E+01 +0.8908048113893986E-03 +0.1560051286972601E+01
+0.1541978418733334E+01 +0.1652254795744997E+01 +0.9044467885927256E-03 +0.1560150770358697E+01
+0.1564654571950000E+01 +0.1652363236671956E+01 +0.9181043909988286E-03 +0.1560251768070030E+01
+0.1587330725166667E+01 +0.1652473303753576E+01 +0.9317778655561278E-03 +0.1560354281920854E+01
+0.1610006878383334E+01 +0.1652584998891947E+01 +0.9454674599880889E-03 +0.1560458313753948E+01
+0.1632683031600000E+01 +0.1652698324018660E+01 +0.9591734228061834E-03 +0.1560563865440714E+01
+0.1655359184816667E+01 +0.1652813281094902E+01 +0.9728960033229184E-03 +0.1560670938881265E+01
+0.1678035338033333E+01 +0.1652929872111553E+01 +0.9866354516649589E-03 +0.1560779536004520E+01
+0.1700711491250000E+01 +0.1653048099089280E+01 +0.1000392018786315E-02 +0.1560889658768303E+01
+0.1723387644466667E+01 +0.1653167964078638E+01 +0.1014165956481623E-02 +0.1561001309159440E+01
+0.1746063797683334E+01 +0.1653289469160172E+01 +0.1027957517399509E-02 +0.1561114489193857E+01
+0.1768739950900000E+01 +0.1653412616444518E+01 +0.1041766955056037E-02 +0.1561229200916679E+01
+0.1791416104116667E+01 +0.1653537408072506E+01 +0.1055594523848244E-02 +0.1561345446402339E+01
+0.1814092257333333E+01 +0.1653663846215265E+01 +0.1069440479067760E-02 +0.1561463227754675E+01
+0.1836768410550000E+01 +0.1653791933074334E+01 +0.1083305076914527E-02 +0.1561582547107040E+01
+0.1859444563766667E+01 +0.1653921670881765E+01 +0.1097188574510601E-02 +0.1561703406622409E+01
+0.1882120716983333E+01 +0.1654053061900239E+01 +0.1111091229914052E-02 +0.1561825808493483E+01
+0.1904796870200000E+01 +0.1654186108423173E+01 +0.1125013302132956E-02 +0.1561949754942808E+01
+0.1927473023416667E+01 +0.1654320812774839E+01 +0.1138955051139486E-02 +0.1562075248222881E+01
+0.1950149176633334E+01 +0.1654457177310472E+01 +0.1152916737884099E-02 +0.1562202290616266E+01
+0.1972825329850000E+01 +0.1654595204416395E+01 +0.1166898624309822E-02 +0.1562330884435705E+01
+0.1995501483066667E+01 +0.1654734896510131E+01 +0.1180900973366641E-02 +0.1562461032024246E+01
+0.2018177636283334E+01 +0.1654876256040529E+01 +0.1194924049025993E-02 +0.1562592735755349E+01
+0.2040853789500000E+01 +0.1655019285487884E+01 +0.1208968116295358E-02 +0.1562725998033019E+01
+0.2063529942716667E+01 +0.1655163987364058E+01 +0.1223033441232967E-02 +0.1562860821291917E+01
+0.2086206095933334E+01 +0.1655310364212608E+01 +0.1237120290962604E-02 +0.1562997207997490E+01
+0.2108882249150000E+01 +0.1655458418608918E+01 +0.1251228933688528E-02 +0.1563135160646099E+01
+0.2131558402366667E+01 +0.1655608153160320E+01 +0.1265359638710508E-02 +0.1563274681765138E+01
+0.2154234555583334E+01 +0.1655759570506228E+01 +0.1279512676438957E-02 +0.1563415773913176E+01
+0.2176910708800000E+01 +0.1655912673318277E+01 +0.1293688318410197E-02 +0.1563558439680075E+01
+0.2199586862016667E+01 +0.1656067464300446E+01 +0.1307886837301836E-02 +0.1563702681687133E+01
+0.2222263015233334E+01 +0.1656223946189206E+01 +0.1322108506948252E-02 +0.1563848502587212E+01
+0.2244939168450000E+01 +0.1656382121753649E+01 +0.1336353602356216E-02 +0.1563995905064880E+01
+0.2267615321666667E+01 +0.1656541993795634E+01 +0.1350622399720623E-02 +0.1564144891836543E+01
+0.2290291474883333E+01 +0.1656703565149928E+01 +0.1364915176440353E-02 +0.1564295465650592E+01
+0.2312967628100000E+01 +0.1656866838684348E+01 +0.1379232211134257E-02 +0.1564447629287540E+01
+0.2335643781316667E+01 +0.1657031817299909E+01 +0.1393573783657277E-02 +0.1564601385560171E+01
+0.2358319934533334E+01 +0.1657198503930968E+01 +0.1407940175116675E-02 +0.1564756737313679E+01
+0.2380996087750000E+01 +0.1657366901545380E+01 +0.1422331667888424E-02 +0.1564913687425822E+01
+0.2403672240966667E+01 +0.1657537013144645E+01 +0.1436748545633709E-02 +0.1565072238807072E+01
+0.2426348394183333E+01 +0.1657708841764061E+01 +0.1451191093315574E-02 +0.1565232394400758E+01
+0.2449024547400001E+01 +0.1657882390472884E+01 +0.1465659597215708E-02 +0.1565394157183231E+01
+0.2471700700616667E+01 +0.1658057662374480E+01 +0.1480154344951366E-02 +0.1565557530164014E+01
+0.2494376853833334E+01 +0.1658234660606489E+01 +0.1494675625492433E-02 +0.1565722516385958E+01
+0.2517053007050000E+01 +0.1658413388340987E+01 +0.1509223729178638E-02 +0.1565889118925406E+01
+0.2539729160266667E+01 +0.1658593848784643E+01 +0.1523798947736904E-02 +0.1566057340892351E+01
+0.2562405313483334E+01 +0.1658776045178895E+01 +0.1538401574298860E-02 +0.1566227185430603E+01
+0.2585081466700000E+01 +0.1658959980800108E+01 +0.1553031903418492E-02 +0.1566398655717951E+01
+0.2607757619916667E+01 +0.1659145658959751E+01 +0.1567690231089953E-02 +0.1566571754966337E+01
+0.2630433773133334E+01 +0.1659333083004566E+01 +0.1582376854765525E-02 +0.1566746486422017E+01
+0.2653109926350000E+01 +0.1659522256316742E+01 +0.1597092073373742E-02 +0.1566922853365738E+01
+0.2675786079566667E+01 +0.1659713182314092E+01 +0.1611836187337673E-02 +0.1567100859112919E+01
+0.2698462232783334E+01 +0.1659905864450233E+01 +0.1626609498593360E-02 +0.1567280507013813E+01
+0.2721138386000000E+01 +0.1660100306214765E+01 +0.1641412310608437E-02 +0.1567461800453698E+01
+0.2743814539216667E+01 +0.1660296511133452E+01 +0.1656244928400892E-02 +0.1567644742853053E+01
+0.2766490692433333E+01 +0.1660494482768412E+01 +0.1671107658558025E-02 +0.1567829337667735E+01
+0.2789166845650001E+01 +0.1660694224718302E+01 +0.1686000809255553E-02 +0.1568015588389179E+01
+0.2811842998866667E+01 +0.1660895740618507E+01 +0.1700924690276910E-02 +0.1568203498544571E+01
+0.2834519152083334E+01 +0.1661099034141333E+01 +0.1715879613032714E-02 +0.1568393071697046E+01
+0.2857195305300000E+01 +0.1661304108996202E+01 +0.1730865890580414E-02 +0.1568584311445877E+01
+0.2879871458516667E+01 +0.1661510968929846E+01 +0.1745883837644121E-02 +0.1568777221426668E+01
+0.2902547611733334E+01 +0.1661719617726509E+01 +0.1760933770634623E-02 +0.1568971805311557E+01
+0.2925223764950001E+01 +0.1661930059208149E+01 +0.1776016007669588E-02 +0.1569168066809406E+01
+0.2947899918166667E+01 +0.1662142297234639E+01 +0.1791130868593959E-02 +0.1569366009666010E+01
+0.2970576071383334E+01 +0.1662356335703973E+01 +0.1806278675000543E-02 +0.1569565637664298E+01
+0.2993252224600000E+01 +0.1662572178552481E+01 +0.1821459750250786E-02 +0.1569766954624539E+01
+0.3015928377816667E+01 +0.1662789829755030E+01 +0.1836674419495760E-02 +0.1569969964404551E+01
+0.3038604531033334E+01 +0.1663009293325248E+01 +0.1851923009697345E-02 +0.1570174670899911E+01
+0.3061280684250000E+01 +0.1663230573315733E+01 +0.1867205849649618E-02 +0.1570381078044175E+01
+0.3083956837466667E+01 +0.1663453673818276E+01 +0.1882523270000441E-02 +0.1570589189809083E+01
+0.3106632990683334E+01 +0.1663678598964079E+01 +0.1897875603273278E-02 +0.1570799010204789E+01
+0.3129309143900000E+01 +0.1663905352923984E+01 +0.1913263183889203E-02 +0.1571010543280076E+01
+0.3151985297116667E+01 +0.1664133939908693E+01 +0.1928686348189142E-02 +0.1571223793122581E+01
+0.3174661450333334E+01 +0.1664364364169004E+01 +0.1944145434456324E-02 +0.1571438763859023E+01
+0.3197337603550000E+01 +0.1664596629996035E+01 +0.1959640782938965E-02 +0.1571655459655433E+01
+0.3220013756766667E+01 +0.1664830741721470E+01 +0.1975172735873168E-02 +0.1571873884717383E+01
+0.3242689909983334E+01 +0.1665066703717784E+01 +0.1990741637506054E-02 +0.1572094043290220E+01
+0.3265366063200001E+01 +0.1665304520398490E+01 +0.2006347834119140E-02 +0.1572315939659310E+01
+0.3288042216416667E+01 +0.1665544196218384E+01 +0.2021991674051925E-02 +0.1572539578150272E+01
+0.3310718369633334E+01 +0.1665785735673785E+01 +0.2037673507725747E-02 +0.1572764963129221E+01
+0.3333394522850000E+01 +0.1666029143302785E+01 +0.2053393687667859E-02 +0.1572992099003017E+01
+0.3356070676066667E+01 +0.1666274423685503E+01 +0.2069152568535759E-02 +0.1573220990219512E+01
+0.3378746829283334E+01 +0.1666521581444339E+01 +0.2084950507141784E-02 +0.1573451641267802E+01
+0.3401422982500000E+01 +0.1666770621244229E+01 +0.2100787862477924E-02 +0.1573684056678480E+01
+0.3424099135716667E+01 +0.1667021547792905E+01 +0.2116664995740934E-02 +0.1573918241023897E+01
+0.3446775288933334E+01 +0.1667274365841163E+01 +0.2132582270357676E-02 +0.1574154198918414E+01
+0.3469451442150000E+01 +0.1667529080183123E+01 +0.2148540052010736E-02 +0.1574391935018677E+01
+0.3492127595366668E+01 +0.1667785695656503E+01 +0.2164538708664314E-02 +0.1574631454023874E+01
+0.3514803748583334E+01 +0.1668044217142889E+01 +0.2180578610590382E-02 +0.1574872760676008E+01
+0.3537479901800000E+01 +0.1668304649568012E+01 +0.2196660130395117E-02 +0.1575115859760170E+01
+0.3560156055016667E+01 +0.1668566997902024E+01 +0.2212783643045617E-02 +0.1575360756104810E+01
+0.3582832208233334E+01 +0.1668831267159784E+01 +0.2228949525896898E-02 +0.1575607454582030E+01
+0.3605508361450001E+01 +0.1669097462401140E+01 +0.2245158158719184E-02 +0.1575855960107841E+01
+0.3628184514666667E+01 +0.1669365588731217E+01 +0.2261409923725489E-02 +0.1576106277642471E+01
+0.3650860667883334E+01 +0.1669635651300712E+01 +0.2277705205599487E-02 +0.1576358412190648E+01
+0.3673536821100000E+01 +0.1669907655306185E+01 +0.2294044391523703E-02 +0.1576612368801882E+01
+0.3696212974316667E+01 +0.1670181605990359E+01 +0.2310427871207982E-02 +0.1576868152570769E+01
+0.3718889127533334E+01 +0.1670457508642424E+01 +0.2326856036918292E-02 +0.1577125768637289E+01
+0.3741565280750001E+01 +0.1670735368598336E+01 +0.2343329283505831E-02 +0.1577385222187106E+01
+0.3764241433966667E+01 +0.1671015191241135E+01 +0.2359848008436453E-02 +0.1577646518451872E+01
+0.3786917587183334E+01 +0.1671296982001246E+01 +0.2376412611820419E-02 +0.1577909662709537E+01
+0.3809593740400000E+01 +0.1671580746356803E+01 +0.2393023496442478E-02 +0.1578174660284667E+01
+0.3832269893616667E+01 +0.1671866489833967E+01 +0.2409681067792274E-02 +0.1578441516548747E+01
+0.3854946046833334E+01 +0.1672154218007244E+01 +0.2426385734095099E-02 +0.1578710236920513E+01
+0.3877622200050001E+01 +0.1672443936499818E+01 +0.2443137906342994E-02 +0.1578980826866266E+01
+0.3900298353266667E+01 +0.1672735650983877E+01 +0.2459937998326176E-02 +0.1579253291900209E+01
+0.3922974506483333E+01 +0.1673029367180949E+01 +0.2476786426664843E-02 +0.1579527637584764E+01
+0.3945650659700001E+01 +0.1673325090862237E+01 +0.2493683610841321E-02 +0.1579803869530919E+01
+0.3968326812916667E+01 +0.1673622827848965E+01 +0.2510629973232579E-02 +0.1580081993398558E+01
+0.3991002966133334E+01 +0.1673922584012721E+01 +0.2527625939143116E-02 +0.1580362014896808E+01
+0.4013679119350001E+01 +0.1674224365275806E+01 +0.2544671936838219E-02 +0.1580643939784380E+01
+0.4036355272566667E+01 +0.1674528177611587E+01 +0.2561768397577600E-02 +0.1580927773869923E+01
+0.4059031425783334E+01 +0.1674834027044859E+01 +0.2578915755649418E-02 +0.1581213523012373E+01
+0.4081707579000001E+01 +0.1675141919652199E+01 +0.2596114448404694E-02 +0.1581501193121318E+01
+0.4104383732216667E+01 +0.1675451861562337E+01 +0.2613364916292120E-02 +0.1581790790157350E+01
+0.4127059885433334E+01 +0.1675763858956525E+01 +0.2630667602893272E-02 +0.1582082320132443E+01
+0.4149736038650000E+01 +0.1676077918068909E+01 +0.2648022954958237E-02 +0.1582375789110309E+01
+0.4172412191866667E+01 +0.1676394045186910E+01 +0.2665431422441642E-02 +0.1582671203206788E+01
+0.4195088345083334E+01 +0.1676712246651604E+01 +0.2682893458539108E-02 +0.1582968568590212E+01
+0.4217764498300000E+01 +0.1677032528858108E+01 +0.2700409519724139E-02 +0.1583267891481797E+01
+0.4240440651516668E+01 +0.1677354898255976E+01 +0.2717980065785437E-02 +0.1583569178156027E+01
+0.4263116804733333E+01 +0.1677679361349588E+01 +0.2735605559864650E-02 +0.1583872434941049E+01
+0.4285792957950000E+01 +0.1678005924698556E+01 +0.2753286468494584E-02 +0.1584177668219063E+01
+0.4308469111166668E+01 +0.1678334594918127E+01 +0.2771023261637854E-02 +0.1584484884426728E+01
+0.4331145264383334E+01 +0.1678665378679590E+01 +0.2788816412725988E-02 +0.1584794090055564E+01
+0.4353821417600001E+01 +0.1678998282710693E+01 +0.2806666398699022E-02 +0.1585105291652366E+01
+0.4376497570816667E+01 +0.1679333313796060E+01 +0.2824573700045538E-02 +0.1585418495819617E+01
+0.4399173724033334E+01 +0.1679670478777613E+01 +0.2842538800843207E-02 +0.1585733709215901E+01
+0.4421849877250001E+01 +0.1680009784555007E+01 +0.2860562188799811E-02 +0.1586050938556337E+01
+0.4444526030466667E+01 +0.1680351238086055E+01 +0.2878644355294752E-02 +0.1586370190613003E+01
+0.4467202183683334E+01 +0.1680694846387169E+01 +0.2896785795421072E-02 +0.1586691472215369E+01
+0.4489878336900000E+01 +0.1681040616533807E+01 +0.2914987008027976E-02 +0.1587014790250740E+01
+0.4512554490116667E+01 +0.1681388555660916E+01 +0.2933248495763895E-02 +0.1587340151664693E+01
+0.4535230643333334E+01 +0.1681738670963389E+01 +0.2951570765120033E-02 +0.1587667563461536E+01
+0.4557906796550000E+01 +0.1682090969696521E+01 +0.2969954326474485E-02 +0.1587997032704753E+01
