# Macroscopic dielectric function epsm
#
# Momentum transfer Q=G+q in lattice cooridnates
# G:   0   0   0
# q:   0.0000000   0.0000000   0.0000000
# Momentum transfer Q=G+q in Cartesian cooridnates
# G:   0.0000000   0.0000000   0.0000000
# q:   0.0000000   0.0000000   0.0000000
# Norm2(G+q)   0.0000000
#
# Energy scale=   27.211384
# Used broadening in scaled energy units:    0.190480
#
# Number of k-points=      27
# Unit cell volume [au]=  110.090925
# Coulomb potential v(Q) [au]=          0.000000
#
#             Frequency                Re(epsm)                Im(epsm)       Re(epsm) form KKT
+0.0000000000000000E+00 +0.1843202990275529E+01 -0.3125788307561013E-29 +0.1826851803082712E+01
+0.2267615321666667E-01 +0.1843204803809766E+01 +0.3048975452855228E-04 +0.1826844858238685E+01
+0.4535230643333334E-01 +0.1843210244468781E+01 +0.6098045682980176E-04 +0.1826850774892744E+01
+0.6802845965000001E-01 +0.1843219312421477E+01 +0.9147305475819766E-04 +0.1826861110873931E+01
+0.9070461286666667E-01 +0.1843232007949379E+01 +0.1219684963317071E-03 +0.1826873330721069E+01
+0.1133807660833333E+00 +0.1843248331446656E+01 +0.1524677298136013E-03 +0.1826889722383886E+01
+0.1360569193000000E+00 +0.1843268283420154E+01 +0.1829717037942986E-03 +0.1826909577286870E+01
+0.1587330725166667E+00 +0.1843291864489440E+01 +0.2134813672732467E-03 +0.1826933118699024E+01
+0.1814092257333333E+00 +0.1843319075386859E+01 +0.2439976697408873E-03 +0.1826960263513114E+01
+0.2040853789500000E+00 +0.1843349916957587E+01 +0.2745215612606987E-03 +0.1826991038123054E+01
+0.2267615321666667E+00 +0.1843384390159719E+01 +0.3050539925513376E-03 +0.1827025434730361E+01
+0.2494376853833334E+00 +0.1843422496064337E+01 +0.3355959150688853E-03 +0.1827063456843004E+01
+0.2721138386000000E+00 +0.1843464235855611E+01 +0.3661482810892340E-03 +0.1827105104781015E+01
+0.2947899918166667E+00 +0.1843509610830898E+01 +0.3967120437905982E-03 +0.1827150380038483E+01
+0.3174661450333334E+00 +0.1843558622400857E+01 +0.4272881573361890E-03 +0.1827199283934287E+01
+0.3401422982500000E+00 +0.1843611272089563E+01 +0.4578775769570519E-03 +0.1827251818000133E+01
+0.3628184514666667E+00 +0.1843667561534648E+01 +0.4884812590350922E-03 +0.1827307983859581E+01
+0.3854946046833334E+00 +0.1843727492487437E+01 +0.5191001611862902E-03 +0.1827367783260287E+01
+0.4081707579000001E+00 +0.1843791066813100E+01 +0.5497352423441265E-03 +0.1827431218063082E+01
+0.4308469111166667E+00 +0.1843858286490814E+01 +0.5803874628432404E-03 +0.1827498290244376E+01
+0.4535230643333333E+00 +0.1843929153613933E+01 +0.6110577845033259E-03 +0.1827569001895128E+01
+0.4761992175500001E+00 +0.1844003670390171E+01 +0.6417471707132709E-03 +0.1827643355221044E+01
+0.4988753707666667E+00 +0.1844081839141791E+01 +0.6724565865155827E-03 +0.1827721352542573E+01
+0.5215515239833334E+00 +0.1844163662305806E+01 +0.7031869986910825E-03 +0.1827802996295029E+01
+0.5442276772000001E+00 +0.1844249142434194E+01 +0.7339393758439020E-03 +0.1827888289028759E+01
+0.5669038304166668E+00 +0.1844338282194112E+01 +0.7647146884867955E-03 +0.1827977233409301E+01
+0.5895799836333334E+00 +0.1844431084368135E+01 +0.7955139091267815E-03 +0.1828069832217624E+01
+0.6122561368500001E+00 +0.1844527551854492E+01 +0.8263380123511184E-03 +0.1828166088350332E+01
+0.6349322900666667E+00 +0.1844627687667322E+01 +0.8571879749136471E-03 +0.1828266004819899E+01
+0.6576084432833335E+00 +0.1844731494936933E+01 +0.8880647758215021E-03 +0.1828369584754945E+01
+0.6802845965000001E+00 +0.1844838976910074E+01 +0.9189693964222120E-03 +0.1828476831400481E+01
+0.7029607497166668E+00 +0.1844950136950222E+01 +0.9499028204912018E-03 +0.1828587748118200E+01
+0.7256369029333334E+00 +0.1845064978537867E+01 +0.9808660343197200E-03 +0.1828702338386760E+01
+0.7483130561500001E+00 +0.1845183505270827E+01 +0.1011860026803200E-02 +0.1828820605802085E+01
+0.7709892093666668E+00 +0.1845305720864550E+01 +0.1042885789530060E-02 +0.1828942554077687E+01
+0.7936653625833334E+00 +0.1845431629152447E+01 +0.1073944316870989E-02 +0.1829068187044974E+01
+0.8163415158000001E+00 +0.1845561234086223E+01 +0.1105036606068699E-02 +0.1829197508653596E+01
+0.8390176690166667E+00 +0.1845694539736225E+01 +0.1136163657328189E-02 +0.1829330522971781E+01
+0.8616938222333335E+00 +0.1845831550291799E+01 +0.1167326473907515E-02 +0.1829467234186705E+01
+0.8843699754500001E+00 +0.1845972270061652E+01 +0.1198526062209096E-02 +0.1829607646604840E+01
+0.9070461286666667E+00 +0.1846116703474238E+01 +0.1229763431871567E-02 +0.1829751764652342E+01
+0.9297222818833335E+00 +0.1846264855078142E+01 +0.1261039595862198E-02 +0.1829899592875445E+01
+0.9523984351000001E+00 +0.1846416729542483E+01 +0.1292355570569893E-02 +0.1830051135940846E+01
+0.9750745883166668E+00 +0.1846572331657321E+01 +0.1323712375898797E-02 +0.1830206398636131E+01
+0.9977507415333334E+00 +0.1846731666334086E+01 +0.1355111035362501E-02 +0.1830365385870183E+01
+0.1020426894750000E+01 +0.1846894738606005E+01 +0.1386552576178907E-02 +0.1830528102673628E+01
+0.1043103047966667E+01 +0.1847061553628548E+01 +0.1418038029365722E-02 +0.1830694554199272E+01
+0.1065779201183333E+01 +0.1847232116679891E+01 +0.1449568429836625E-02 +0.1830864745722557E+01
+0.1088455354400000E+01 +0.1847406433161374E+01 +0.1481144816498139E-02 +0.1831038682642031E+01
+0.1111131507616667E+01 +0.1847584508597984E+01 +0.1512768232347189E-02 +0.1831216370479825E+01
+0.1133807660833334E+01 +0.1847766348638849E+01 +0.1544439724569395E-02 +0.1831397814882147E+01
+0.1156483814050000E+01 +0.1847951959057736E+01 +0.1576160344638102E-02 +0.1831583021619775E+01
+0.1179159967266667E+01 +0.1848141345753568E+01 +0.1607931148414177E-02 +0.1831771996588581E+01
+0.1201836120483333E+01 +0.1848334514750947E+01 +0.1639753196246585E-02 +0.1831964745810058E+01
+0.1224512273700000E+01 +0.1848531472200694E+01 +0.1671627553073767E-02 +0.1832161275431838E+01
+0.1247188426916667E+01 +0.1848732224380402E+01 +0.1703555288525831E-02 +0.1832361591728276E+01
+0.1269864580133333E+01 +0.1848936777694992E+01 +0.1735537477027594E-02 +0.1832565701100975E+01
+0.1292540733350000E+01 +0.1849145138677292E+01 +0.1767575197902477E-02 +0.1832773610079385E+01
+0.1315216886566667E+01 +0.1849357313988623E+01 +0.1799669535477280E-02 +0.1832985325321382E+01
+0.1337893039783334E+01 +0.1849573310419399E+01 +0.1831821579187858E-02 +0.1833200853613866E+01
+0.1360569193000000E+01 +0.1849793134889735E+01 +0.1864032423685724E-02 +0.1833420201873378E+01
+0.1383245346216667E+01 +0.1850016794450080E+01 +0.1896303168945589E-02 +0.1833643377146713E+01
+0.1405921499433334E+01 +0.1850244296281843E+01 +0.1928634920373874E-02 +0.1833870386611566E+01
+0.1428597652650000E+01 +0.1850475647698053E+01 +0.1961028788918187E-02 +0.1834101237577181E+01
+0.1451273805866667E+01 +0.1850710856144019E+01 +0.1993485891177845E-02 +0.1834335937485019E+01
+0.1473949959083333E+01 +0.1850949929198005E+01 +0.2026007349515390E-02 +0.1834574493909416E+01
+0.1496626112300000E+01 +0.1851192874571922E+01 +0.2058594292169179E-02 +0.1834816914558296E+01
+0.1519302265516667E+01 +0.1851439700112030E+01 +0.2091247853367045E-02 +0.1835063207273854E+01
+0.1541978418733334E+01 +0.1851690413799657E+01 +0.2123969173441060E-02 +0.1835313380033285E+01
+0.1564654571950000E+01 +0.1851945023751922E+01 +0.2156759398943414E-02 +0.1835567440949511E+01
+0.1587330725166667E+01 +0.1852203538222492E+01 +0.2189619682763448E-02 +0.1835825398271920E+01
+0.1610006878383334E+01 +0.1852465965602328E+01 +0.2222551184245851E-02 +0.1836087260387126E+01
+0.1632683031600000E+01 +0.1852732314420463E+01 +0.2255555069310072E-02 +0.1836353035819750E+01
+0.1655359184816667E+01 +0.1853002593344790E+01 +0.2288632510570924E-02 +0.1836622733233187E+01
+0.1678035338033333E+01 +0.1853276811182855E+01 +0.2321784687460462E-02 +0.1836896361430426E+01
+0.1700711491250000E+01 +0.1853554976882682E+01 +0.2355012786351124E-02 +0.1837173929354853E+01
+0.1723387644466667E+01 +0.1853837099533598E+01 +0.2388318000680156E-02 +0.1837455446091078E+01
+0.1746063797683334E+01 +0.1854123188367076E+01 +0.2421701531075387E-02 +0.1837740920865799E+01
+0.1768739950900000E+01 +0.1854413252757599E+01 +0.2455164585482347E-02 +0.1838030363048629E+01
+0.1791416104116667E+01 +0.1854707302223531E+01 +0.2488708379292762E-02 +0.1838323782153003E+01
+0.1814092257333333E+01 +0.1855005346428013E+01 +0.2522334135474459E-02 +0.1838621187837045E+01
+0.1836768410550000E+01 +0.1855307395179858E+01 +0.2556043084702709E-02 +0.1838922589904485E+01
+0.1859444563766667E+01 +0.1855613458434486E+01 +0.2589836465493033E-02 +0.1839227998305573E+01
+0.1882120716983333E+01 +0.1855923546294850E+01 +0.2623715524335509E-02 +0.1839537423138022E+01
+0.1904796870200000E+01 +0.1856237669012393E+01 +0.2657681515830605E-02 +0.1839850874647955E+01
+0.1927473023416667E+01 +0.1856555836988021E+01 +0.2691735702826539E-02 +0.1840168363230876E+01
+0.1950149176633334E+01 +0.1856878060773081E+01 +0.2725879356558285E-02 +0.1840489899432655E+01
+0.1972825329850000E+01 +0.1857204351070369E+01 +0.2760113756788130E-02 +0.1840815493950529E+01
+0.1995501483066667E+01 +0.1857534718735149E+01 +0.2794440191947915E-02 +0.1841145157634122E+01
+0.2018177636283334E+01 +0.1857869174776183E+01 +0.2828859959282961E-02 +0.1841478901486477E+01
+0.2040853789500000E+01 +0.1858207730356793E+01 +0.2863374364997699E-02 +0.1841816736665113E+01
+0.2063529942716667E+01 +0.1858550396795922E+01 +0.2897984724403038E-02 +0.1842158674483090E+01
+0.2086206095933334E+01 +0.1858897185569230E+01 +0.2932692362065549E-02 +0.1842504726410102E+01
+0.2108882249150000E+01 +0.1859248108310194E+01 +0.2967498611958426E-02 +0.1842854904073571E+01
+0.2131558402366667E+01 +0.1859603176811234E+01 +0.3002404817614323E-02 +0.1843209219259786E+01
+0.2154234555583334E+01 +0.1859962403024857E+01 +0.3037412332280075E-02 +0.1843567683915031E+01
+0.2176910708800000E+01 +0.1860325799064811E+01 +0.3072522519073344E-02 +0.1843930310146751E+01
+0.2199586862016667E+01 +0.1860693377207271E+01 +0.3107736751141225E-02 +0.1844297110224727E+01
+0.2222263015233334E+01 +0.1861065149892032E+01 +0.3143056411820850E-02 +0.1844668096582277E+01
+0.2244939168450000E+01 +0.1861441129723730E+01 +0.3178482894802044E-02 +0.1845043281817468E+01
+0.2267615321666667E+01 +0.1861821329473074E+01 +0.3214017604292024E-02 +0.1845422678694351E+01
+0.2290291474883333E+01 +0.1862205762078104E+01 +0.3249661955182262E-02 +0.1845806300144226E+01
+0.2312967628100000E+01 +0.1862594440645469E+01 +0.3285417373217485E-02 +0.1846194159266904E+01
+0.2335643781316667E+01 +0.1862987378451719E+01 +0.3321285295166857E-02 +0.1846586269332010E+01
+0.2358319934533334E+01 +0.1863384588944626E+01 +0.3357267168997433E-02 +0.1846982643780294E+01
+0.2380996087750000E+01 +0.1863786085744513E+01 +0.3393364454049879E-02 +0.1847383296224977E+01
+0.2403672240966667E+01 +0.1864191882645625E+01 +0.3429578621216527E-02 +0.1847788240453091E+01
+0.2426348394183333E+01 +0.1864601993617494E+01 +0.3465911153121812E-02 +0.1848197490426877E+01
+0.2449024547400001E+01 +0.1865016432806350E+01 +0.3502363544305111E-02 +0.1848611060285167E+01
+0.2471700700616667E+01 +0.1865435214536538E+01 +0.3538937301406047E-02 +0.1849028964344819E+01
+0.2494376853833334E+01 +0.1865858353311965E+01 +0.3575633943352339E-02 +0.1849451217102155E+01
+0.2517053007050000E+01 +0.1866285863817567E+01 +0.3612455001550157E-02 +0.1849877833234421E+01
+0.2539729160266667E+01 +0.1866717760920797E+01 +0.3649402020077132E-02 +0.1850308827601293E+01
+0.2562405313483334E+01 +0.1867154059673138E+01 +0.3686476555878020E-02 +0.1850744215246371E+01
+0.2585081466700000E+01 +0.1867594775311639E+01 +0.3723680178963034E-02 +0.1851184011398719E+01
+0.2607757619916667E+01 +0.1868039923260477E+01 +0.3761014472608996E-02 +0.1851628231474429E+01
+0.2630433773133334E+01 +0.1868489519132537E+01 +0.3798481033563267E-02 +0.1852076891078198E+01
+0.2653109926350000E+01 +0.1868943578731021E+01 +0.3836081472250552E-02 +0.1852530006004938E+01
+0.2675786079566667E+01 +0.1869402118051080E+01 +0.3873817412982640E-02 +0.1852987592241403E+01
+0.2698462232783334E+01 +0.1869865153281474E+01 +0.3911690494171101E-02 +0.1853449665967850E+01
+0.2721138386000000E+01 +0.1870332700806252E+01 +0.3949702368543053E-02 +0.1853916243559721E+01
+0.2743814539216667E+01 +0.1870804777206458E+01 +0.3987854703359982E-02 +0.1854387341589345E+01
+0.2766490692433333E+01 +0.1871281399261876E+01 +0.4026149180639751E-02 +0.1854862976827671E+01
+0.2789166845650001E+01 +0.1871762583952776E+01 +0.4064587497381810E-02 +0.1855343166246041E+01
+0.2811842998866667E+01 +0.1872248348461714E+01 +0.4103171365795672E-02 +0.1855827927017961E+01
+0.2834519152083334E+01 +0.1872738710175343E+01 +0.4141902513532752E-02 +0.1856317276520920E+01
+0.2857195305300000E+01 +0.1873233686686252E+01 +0.4180782683921590E-02 +0.1856811232338237E+01
+0.2879871458516667E+01 +0.1873733295794842E+01 +0.4219813636206545E-02 +0.1857309812260920E+01
+0.2902547611733334E+01 +0.1874237555511225E+01 +0.4258997145790030E-02 +0.1857813034289575E+01
+0.2925223764950001E+01 +0.1874746484057145E+01 +0.4298335004478349E-02 +0.1858320916636326E+01
+0.2947899918166667E+01 +0.1875260099867945E+01 +0.4337829020731218E-02 +0.1858833477726770E+01
+0.2970576071383334E+01 +0.1875778421594547E+01 +0.4377481019915003E-02 +0.1859350736201965E+01
+0.2993252224600000E+01 +0.1876301468105471E+01 +0.4417292844559802E-02 +0.1859872710920450E+01
+0.3015928377816667E+01 +0.1876829258488885E+01 +0.4457266354620410E-02 +0.1860399420960282E+01
+0.3038604531033334E+01 +0.1877361812054680E+01 +0.4497403427741240E-02 +0.1860930885621121E+01
+0.3061280684250000E+01 +0.1877899148336585E+01 +0.4537705959525296E-02 +0.1861467124426338E+01
+0.3083956837466667E+01 +0.1878441287094303E+01 +0.4578175863807276E-02 +0.1862008157125153E+01
+0.3106632990683334E+01 +0.1878988248315696E+01 +0.4618815072930865E-02 +0.1862554003694809E+01
+0.3129309143900000E+01 +0.1879540052218979E+01 +0.4659625538030305E-02 +0.1863104684342781E+01
+0.3151985297116667E+01 +0.1880096719254977E+01 +0.4700609229316356E-02 +0.1863660219509013E+01
+0.3174661450333334E+01 +0.1880658270109389E+01 +0.4741768136366687E-02 +0.1864220629868195E+01
+0.3197337603550000E+01 +0.1881224725705103E+01 +0.4783104268420836E-02 +0.1864785936332075E+01
+0.3220013756766667E+01 +0.1881796107204542E+01 +0.4824619654679743E-02 +0.1865356160051787E+01
+0.3242689909983334E+01 +0.1882372436012044E+01 +0.4866316344610084E-02 +0.1865931322420254E+01
+0.3265366063200001E+01 +0.1882953733776275E+01 +0.4908196408253350E-02 +0.1866511445074582E+01
+0.3288042216416667E+01 +0.1883540022392694E+01 +0.4950261936539860E-02 +0.1867096549898525E+01
+0.3310718369633334E+01 +0.1884131324006033E+01 +0.4992515041607781E-02 +0.1867686659024970E+01
+0.3333394522850000E+01 +0.1884727661012831E+01 +0.5034957857127244E-02 +0.1868281794838466E+01
+0.3356070676066667E+01 +0.1885329056064007E+01 +0.5077592538629680E-02 +0.1868881979977795E+01
+0.3378746829283334E+01 +0.1885935532067458E+01 +0.5120421263842444E-02 +0.1869487237338562E+01
+0.3401422982500000E+01 +0.1886547112190714E+01 +0.5163446233028855E-02 +0.1870097590075865E+01
+0.3424099135716667E+01 +0.1887163819863621E+01 +0.5206669669333773E-02 +0.1870713061606954E+01
+0.3446775288933334E+01 +0.1887785678781072E+01 +0.5250093819134790E-02 +0.1871333675613978E+01
+0.3469451442150000E+01 +0.1888412712905778E+01 +0.5293720952399172E-02 +0.1871959456046744E+01
+0.3492127595366668E+01 +0.1889044946471081E+01 +0.5337553363046684E-02 +0.1872590427125530E+01
+0.3514803748583334E+01 +0.1889682403983808E+01 +0.5381593369318326E-02 +0.1873226613343947E+01
+0.3537479901800000E+01 +0.1890325110227176E+01 +0.5425843314151239E-02 +0.1873868039471818E+01
+0.3560156055016667E+01 +0.1890973090263733E+01 +0.5470305565559784E-02 +0.1874514730558141E+01
+0.3582832208233334E+01 +0.1891626369438348E+01 +0.5514982517022990E-02 +0.1875166711934071E+01
+0.3605508361450001E+01 +0.1892284973381254E+01 +0.5559876587878445E-02 +0.1875824009215943E+01
+0.3628184514666667E+01 +0.1892948928011122E+01 +0.5604990223722840E-02 +0.1876486648308372E+01
+0.3650860667883334E+01 +0.1893618259538200E+01 +0.5650325896819208E-02 +0.1877154655407370E+01
+0.3673536821100000E+01 +0.1894292994467489E+01 +0.5695886106511033E-02 +0.1877828057003521E+01
+0.3696212974316667E+01 +0.1894973159601971E+01 +0.5741673379643446E-02 +0.1878506879885219E+01
+0.3718889127533334E+01 +0.1895658782045892E+01 +0.5787690270991467E-02 +0.1879191151141933E+01
+0.3741565280750001E+01 +0.1896349889208089E+01 +0.5833939363695653E-02 +0.1879880898167541E+01
+0.3764241433966667E+01 +0.1897046508805372E+01 +0.5880423269705164E-02 +0.1880576148663707E+01
+0.3786917587183334E+01 +0.1897748668865961E+01 +0.5927144630228410E-02 +0.1881276930643317E+01
+0.3809593740400000E+01 +0.1898456397732972E+01 +0.5974106116191509E-02 +0.1881983272433955E+01
+0.3832269893616667E+01 +0.1899169724067963E+01 +0.6021310428704650E-02 +0.1882695202681459E+01
+0.3854946046833334E+01 +0.1899888676854527E+01 +0.6068760299536545E-02 +0.1883412750353500E+01
+0.3877622200050001E+01 +0.1900613285401956E+01 +0.6116458491597138E-02 +0.1884135944743243E+01
+0.3900298353266667E+01 +0.1901343579348942E+01 +0.6164407799428758E-02 +0.1884864815473059E+01
+0.3922974506483333E+01 +0.1902079588667362E+01 +0.6212611049705857E-02 +0.1885599392498289E+01
+0.3945650659700001E+01 +0.1902821343666093E+01 +0.6261071101743535E-02 +0.1886339706111068E+01
+0.3968326812916667E+01 +0.1903568874994916E+01 +0.6309790848015079E-02 +0.1887085786944220E+01
+0.3991002966133334E+01 +0.1904322213648461E+01 +0.6358773214678591E-02 +0.1887837665975202E+01
+0.4013679119350001E+01 +0.1905081390970228E+01 +0.6408021162113001E-02 +0.1888595374530123E+01
+0.4036355272566667E+01 +0.1905846438656661E+01 +0.6457537685463643E-02 +0.1889358944287810E+01
+0.4059031425783334E+01 +0.1906617388761293E+01 +0.6507325815197560E-02 +0.1890128407283959E+01
+0.4081707579000001E+01 +0.1907394273698961E+01 +0.6557388617668760E-02 +0.1890903795915332E+01
+0.4104383732216667E+01 +0.1908177126250078E+01 +0.6607729195693645E-02 +0.1891685142944041E+01
+0.4127059885433334E+01 +0.1908965979564982E+01 +0.6658350689136869E-02 +0.1892472481501883E+01
+0.4149736038650000E+01 +0.1909760867168350E+01 +0.6709256275507704E-02 +0.1893265845094753E+01
+0.4172412191866667E+01 +0.1910561822963688E+01 +0.6760449170567362E-02 +0.1894065267607133E+01
+0.4195088345083334E+01 +0.1911368881237887E+01 +0.6811932628947259E-02 +0.1894870783306639E+01
+0.4217764498300000E+01 +0.1912182076665855E+01 +0.6863709944778695E-02 +0.1895682426848657E+01
+0.4240440651516668E+01 +0.1913001444315229E+01 +0.6915784452334003E-02 +0.1896500233281038E+01
+0.4263116804733333E+01 +0.1913827019651156E+01 +0.6968159526679545E-02 +0.1897324238048891E+01
+0.4285792957950000E+01 +0.1914658838541153E+01 +0.7020838584340734E-02 +0.1898154476999430E+01
+0.4308469111166668E+01 +0.1915496937260053E+01 +0.7073825083979365E-02 +0.1898990986386905E+01
+0.4331145264383334E+01 +0.1916341352495019E+01 +0.7127122527083606E-02 +0.1899833802877642E+01
+0.4353821417600001E+01 +0.1917192121350657E+01 +0.7180734458670721E-02 +0.1900682963555118E+01
+0.4376497570816667E+01 +0.1918049281354194E+01 +0.7234664468003043E-02 +0.1901538505925156E+01
+0.4399173724033334E+01 +0.1918912870460757E+01 +0.7288916189317323E-02 +0.1902400467921192E+01
+0.4421849877250001E+01 +0.1919782927058730E+01 +0.7343493302567860E-02 +0.1903268887909624E+01
+0.4444526030466667E+01 +0.1920659489975200E+01 +0.7398399534183578E-02 +0.1904143804695256E+01
+0.4467202183683334E+01 +0.1921542598481497E+01 +0.7453638657839516E-02 +0.1905025257526845E+01
+0.4489878336900000E+01 +0.1922432292298822E+01 +0.7509214495242949E-02 +0.1905913286102702E+01
+0.4512554490116667E+01 +0.1923328611603973E+01 +0.7565130916934487E-02 +0.1906807930576429E+01
+0.4535230643333334E+01 +0.1924231597035160E+01 +0.7621391843104536E-02 +0.1907709231562723E+01
+0.4557906796550000E+01 +0.1925141289697923E+01 +0.7678001244425351E-02 +0.1908617230143283E+01
