# Macroscopic dielectric function epsm
#
# Momentum transfer Q=G+q in lattice cooridnates
# G:   0   0   0
# q:   0.0000000   0.0000000   0.0000000
# Momentum transfer Q=G+q in Cartesian cooridnates
# G:   0.0000000   0.0000000   0.0000000
# q:   0.0000000   0.0000000   0.0000000
# Norm2(G+q)   0.0000000
#
# Energy scale=   27.211384
# Used broadening in scaled energy units:    0.489805
#
# Number of k-points=      12
# Unit cell volume [au]=  430.848645
# Coulomb potential v(Q) [au]=          0.000000
#
#             Frequency                Re(epsm)                Im(epsm)       Re(epsm) form KKT
+0.4081707579000000E+03 +0.1000759930759876E+01 +0.1156208610602976E-04 +0.1000783932871010E+01
+0.4089870994158000E+03 +0.1000779699111231E+01 +0.1217976910589970E-04 +0.1000801562801792E+01
+0.4098034409316001E+03 +0.1000800537951573E+01 +0.1284893012149641E-04 +0.1000818827677288E+01
+0.4106197824474000E+03 +0.1000822537756559E+01 +0.1357551762852179E-04 +0.1000839530478727E+01
+0.4114361239632000E+03 +0.1000845799609317E+01 +0.1436637365393470E-04 +0.1000861334988091E+01
+0.4122524654790000E+03 +0.1000870436817842E+01 +0.1522940132317736E-04 +0.1000884789788644E+01
+0.4130688069948000E+03 +0.1000896576840380E+01 +0.1617377054863879E-04 +0.1000909813322559E+01
+0.4138851485106001E+03 +0.1000924363590005E+01 +0.1721017219105048E-04 +0.1000936533156984E+01
+0.4147014900264001E+03 +0.1000953960209256E+01 +0.1835113430589521E-04 +0.1000965073916420E+01
+0.4155178315422000E+03 +0.1000985552431580E+01 +0.1961141857405844E-04 +0.1000995602763243E+01
+0.4163341730580000E+03 +0.1001019352681028E+01 +0.2100852121955491E-04 +0.1001028314567399E+01
+0.4171505145738000E+03 +0.1001055605108345E+01 +0.2256331139235032E-04 +0.1001063438898961E+01
+0.4179668560896000E+03 +0.1001094591825321E+01 +0.2430085227553687E-04 +0.1001101243703219E+01
+0.4187831976054001E+03 +0.1001136640687198E+01 +0.2625146779368036E-04 +0.1001142042453067E+01
+0.4195995391212000E+03 +0.1001182135095750E+01 +0.2845214343517054E-04 +0.1001186203040835E+01
+0.4204158806370000E+03 +0.1001231526469606E+01 +0.3094838758709198E-04 +0.1001234159480727E+01
+0.4212322221528000E+03 +0.1001285350278483E+01 +0.3379673671974643E-04 +0.1001286427049055E+01
+0.4220485636686000E+03 +0.1001344246903255E+01 +0.3706817491723726E-04 +0.1001343622064414E+01
+0.4228649051844000E+03 +0.1001408989127004E+01 +0.4085287438224290E-04 +0.1001406487968658E+01
+0.4236812467002000E+03 +0.1001480518885572E+01 +0.4526688092526258E-04 +0.1001475930157193E+01
+0.4244975882160000E+03 +0.1001559997181519E+01 +0.5046172418459671E-04 +0.1001553063181480E+01
+0.4253139297318000E+03 +0.1001648873088137E+01 +0.5663853054730481E-04 +0.1001639275802489E+01
+0.4261302712476000E+03 +0.1001748981064559E+01 +0.6406925388455674E-04 +0.1001736322367652E+01
+0.4269466127634000E+03 +0.1001862681330399E+01 +0.7312950013666008E-04 +0.1001846453959211E+01
+0.4277629542792000E+03 +0.1001993067639510E+01 +0.8435089355168672E-04 +0.1001972611294470E+01
+0.4285792957950000E+03 +0.1002144284084516E+01 +0.9850770521790145E-04 +0.1002118716519405E+01
+0.4293956373108000E+03 +0.1002322025141823E+01 +0.1167663781712901E-03 +0.1002290129070331E+01
+0.4302119788266000E+03 +0.1002534357755107E+01 +0.1409569511444467E-03 +0.1002494384994955E+01
+0.4310283203424000E+03 +0.1002793140195074E+01 +0.1740966111083554E-03 +0.1002742449402784E+01
+0.4318446618582000E+03 +0.1003116619559422E+01 +0.2214778770306861E-03 +0.1003050948816601E+01
+0.4326610033740000E+03 +0.1003534545155849E+01 +0.2931534225782678E-03 +0.1003446389817460E+01
+0.4334773448898000E+03 +0.1004099192976704E+01 +0.4103478835866733E-03 +0.1003973652174831E+01
+0.4342936864056001E+03 +0.1004912023023897E+01 +0.6249823546211020E-03 +0.1004713943395925E+01
+0.4351100279214000E+03 +0.1006197610185421E+01 +0.1095045286496271E-02 +0.1005819194360468E+01
+0.4359263694372000E+03 +0.1008521665840718E+01 +0.2502993601507572E-02 +0.1007457602224152E+01
+0.4367427109530000E+03 +0.1011751738653833E+01 +0.9650476632361155E-02 +0.1006492707576508E+01
+0.4375590524688000E+03 +0.9966748734832072E+00 +0.1194667572532066E-01 +0.1001794580226843E+01
+0.4383753939846000E+03 +0.9991481334494668E+00 +0.5787469446850048E-02 +0.9995565719410091E+00
+0.4391917355004001E+03 +0.1000269255269346E+01 +0.5481775317348989E-02 +0.1000420161118527E+01
+0.4400080770162000E+03 +0.1000972438152563E+01 +0.8279809027464669E-02 +0.9993112450098928E+00
+0.4408244185320000E+03 +0.9959645501434955E+00 +0.5318733822594551E-02 +0.9978587354353761E+00
+0.4416407600478000E+03 +0.9986933814225605E+00 +0.3435439043680367E-02 +0.9986527213349301E+00
+0.4424571015636001E+03 +0.1001052227446435E+01 +0.5675432326893261E-02 +0.9989808993598813E+00
+0.4432734430794000E+03 +0.9944157787796322E+00 +0.6969703073873857E-02 +0.9971727613159125E+00
+0.4440897845952001E+03 +0.9959748952799461E+00 +0.3213809077402390E-02 +0.9963168697990381E+00
+0.4449061261110000E+03 +0.9969120098997423E+00 +0.2868628025642932E-02 +0.9970923413338391E+00
+0.4457224676268000E+03 +0.9975812569077128E+00 +0.3990154891516700E-02 +0.9968250283547251E+00
+0.4465388091426000E+03 +0.9950277659220772E+00 +0.2707569955482919E-02 +0.9961628724631785E+00
+0.4473551506584001E+03 +0.9960807720271216E+00 +0.1376464190580658E-02 +0.9963423256569802E+00
+0.4481714921742000E+03 +0.9966502931599862E+00 +0.9203454125727439E-03 +0.9968753053014355E+00
+0.4489878336900000E+03 +0.9972291560973948E+00 +0.7929362279538046E-03 +0.9973105889775433E+00
+0.4498041752058000E+03 +0.9975527378786024E+00 +0.7768994948474392E-03 +0.9976169768161894E+00
+0.4506205167216000E+03 +0.9976609000882510E+00 +0.8763507431101888E-03 +0.9977674594521163E+00
+0.4514368582374000E+03 +0.9977369566376448E+00 +0.7774404092530341E-03 +0.9978275209550119E+00
+0.4522531997532001E+03 +0.9978827718584774E+00 +0.5743801543971834E-03 +0.9979671809403405E+00
+0.4530695412690000E+03 +0.9979931243395666E+00 +0.6409209320912932E-03 +0.9980986922614185E+00
+0.4538858827848000E+03 +0.9981281337407172E+00 +0.5662939975197343E-03 +0.9981734147158988E+00
+0.4547022243006001E+03 +0.9981535789285279E+00 +0.5770024404510581E-03 +0.9982352026988046E+00
+0.4555185658164000E+03 +0.9982070283021165E+00 +0.4923533742296452E-03 +0.9982898592064943E+00
+0.4563349073322000E+03 +0.9982341335843455E+00 +0.5329258710586894E-03 +0.9983155550578243E+00
+0.4571512488480000E+03 +0.9982536986447872E+00 +0.3945601007782052E-03 +0.9983278673993298E+00
+0.4579675903638000E+03 +0.9983413479247869E+00 +0.2763418635360501E-03 +0.9984133201397903E+00
+0.4587839318796000E+03 +0.9984172083414620E+00 +0.2945104161633852E-03 +0.9984894600460386E+00
+0.4596002733954001E+03 +0.9984889764913425E+00 +0.2453158386227131E-03 +0.9985336177125174E+00
+0.4604166149112001E+03 +0.9984916219388446E+00 +0.2220909899733466E-03 +0.9985721656544112E+00
+0.4612329564270000E+03 +0.9985472518645566E+00 +0.1371189587000780E-03 +0.9986209891297888E+00
+0.4620492979428000E+03 +0.9986261169938613E+00 +0.1087599558318522E-03 +0.9986838404100027E+00
+0.4628656394586000E+03 +0.9986915369321228E+00 +0.5788941951214158E-04 +0.9987475059330867E+00
+0.4636819809744000E+03 +0.9987668932728488E+00 +0.4124134956255931E-04 +0.9988164876800160E+00
+0.4644983224902001E+03 +0.9988280776384528E+00 +0.3398812937639931E-04 +0.9988757852867445E+00
+0.4653146640060000E+03 +0.9988803801199719E+00 +0.2948070785055136E-04 +0.9989269787330672E+00
+0.4661310055218000E+03 +0.9989264919269503E+00 +0.2622519817821506E-04 +0.9989722291802408E+00
+0.4669473470376000E+03 +0.9989678931865118E+00 +0.2368677559171439E-04 +0.9990128864432165E+00
+0.4677636885534001E+03 +0.9990055141501275E+00 +0.2161619445294283E-04 +0.9990498348225790E+00
+0.4685800300692000E+03 +0.9990399955853511E+00 +0.1987692007763470E-04 +0.9990836943489709E+00
+0.4693963715850001E+03 +0.9990718074388993E+00 +0.1838563572626073E-04 +0.9991149237241701E+00
+0.4702127131008000E+03 +0.9991013100810378E+00 +0.1708745361137081E-04 +0.9991438762919268E+00
+0.4710290546166000E+03 +0.9991287890763141E+00 +0.1594410452284553E-04 +0.9991708327189630E+00
+0.4718453961324000E+03 +0.9991544764311289E+00 +0.1492772341438872E-04 +0.9991960213011324E+00
+0.4726617376482001E+03 +0.9991785643520781E+00 +0.1401731891175348E-04 +0.9992196312502823E+00
+0.4734780791640000E+03 +0.9992012145790750E+00 +0.1319664134469892E-04 +0.9992418217678690E+00
+0.4742944206798000E+03 +0.9992225649616518E+00 +0.1245282964023409E-04 +0.9992627284647241E+00
+0.4751107621956000E+03 +0.9992427342407437E+00 +0.1177551634083937E-04 +0.9992824680388407E+00
+0.4759271037114000E+03 +0.9992618256184248E+00 +0.1115621470153428E-04 +0.9993011417681567E+00
+0.4767434452272000E+03 +0.9992799294828938E+00 +0.1058788634987438E-04 +0.9993188381712389E+00
+0.4775597867430000E+03 +0.9992971255286139E+00 +0.1006462845211225E-04 +0.9993356350664475E+00
+0.4783761282588000E+03 +0.9993134844331554E+00 +0.9581442301612536E-05 +0.9993516011829399E+00
+0.4791924697746000E+03 +0.9993290692024623E+00 +0.9134058807788413E-05 +0.9993667974283463E+00
+0.4800088112904000E+03 +0.9993439362636500E+00 +0.8718804648230521E-05 +0.9993812778760242E+00
+0.4808251528062001E+03 +0.9993581363625090E+00 +0.8332498062099273E-05 +0.9993950905301241E+00
+0.4816414943220000E+03 +0.9993717153078254E+00 +0.7972366635511573E-05 +0.9994082778167602E+00
+0.4824578358378000E+03 +0.9993847145940375E+00 +0.7635981663758391E-05 +0.9994208770112990E+00
+0.4832741773536000E+03 +0.9993971719261838E+00 +0.7321205187525238E-05 +0.9994329196939729E+00
+0.4840905188694000E+03 +0.9994091216655896E+00 +0.7026146844316922E-05 +0.9994444329903326E+00
+0.4849068603852000E+03 +0.9994205952106667E+00 +0.6749128410002373E-05 +0.9994554314545137E+00
+0.4857232019010000E+03 +0.9994316213241656E+00 +0.6488654429483692E-05 +0.9994659360109317E+00
+0.4865395434168000E+03 +0.9994422264158948E+00 +0.6243387715472688E-05 +0.9994758751019654E+00
+0.4873558849326000E+03 +0.9994524347881576E+00 +0.6012128773642973E-05 +0.9994854743318407E+00
+0.4881722264484001E+03 +0.9994622688497794E+00 +0.5793798420304760E-05 +0.9994935875375394E+00
+0.4889885679642000E+03 +0.9994717493035156E+00 +0.5587423015284297E-05 +0.9995020227249930E+00
