# energy (Ha) EELS
   0.000000000       0.000000000    
  0.7500000298E-03   2727988.031    
  0.1500000060E-02   5301417.523    
  0.2250000089E-02   7585410.175    
  0.3000000119E-02   9478583.094    
  0.3750000149E-02   10923890.08    
  0.4500000179E-02   11899217.06    
  0.5250000209E-02   12417798.87    
  0.6000000238E-02   12515543.99    
  0.6750000268E-02   12240760.96    
  0.7500000298E-02   11647385.95    
  0.8250000328E-02   10790088.47    
  0.9000000358E-02   9717470.178    
  0.9750000387E-02   8473356.625    
  0.1050000042E-01   7095517.767    
  0.1125000045E-01   5614495.360    
  0.1200000048E-01   4056349.615    
  0.1275000051E-01   2440942.126    
  0.1350000054E-01   784835.4703    
  0.1425000057E-01  -899867.4151    
  0.1500000060E-01  -2603228.997    
  0.1575000063E-01  -4317677.641    
  0.1650000066E-01  -6037940.975    
  0.1725000069E-01  -7759337.302    
  0.1800000072E-01  -9478808.384    
  0.1875000075E-01  -11194489.35    
  0.1950000077E-01  -12904268.28    
  0.2025000080E-01  -14607817.11    
  0.2100000083E-01  -16304377.86    
  0.2175000086E-01  -17993684.30    
  0.2250000089E-01  -19675453.22    
  0.2325000092E-01  -21349747.66    
  0.2400000095E-01  -23017112.09    
  0.2475000098E-01  -24677701.21    
  0.2550000101E-01  -26332092.61    
  0.2625000104E-01  -27980233.04    
  0.2700000107E-01  -29623084.48    
  0.2775000110E-01  -31260681.39    
  0.2850000113E-01  -32893680.41    
  0.2925000116E-01  -34522124.52    
  0.3000000119E-01  -36146396.16    
  0.3075000122E-01  -37766815.76    
  0.3150000125E-01  -39383916.39    
  0.3225000128E-01  -40997544.84    
  0.3300000131E-01  -42608014.50    
  0.3375000134E-01  -44215233.05    
  0.3450000137E-01  -45819012.40    
  0.3525000140E-01  -47419728.29    
  0.3600000143E-01  -49016813.06    
  0.3675000146E-01  -50610530.77    
  0.3750000149E-01  -52200035.64    
  0.3825000152E-01  -53785363.95    
  0.3900000155E-01  -55365919.02    
  0.3975000158E-01  -56940952.77    
  0.4050000161E-01  -58509863.57    
  0.4125000164E-01  -60072170.93    
  0.4200000167E-01  -61627061.96    
  0.4275000170E-01  -63172812.13    
  0.4350000173E-01  -64709021.87    
  0.4425000176E-01  -66234079.74    
  0.4500000179E-01  -67747179.61    
  0.4575000182E-01  -69246243.85    
  0.4650000185E-01  -70729850.60    
  0.4725000188E-01  -72196586.90    
  0.4800000191E-01  -73644240.94    
  0.4875000194E-01  -75070794.61    
  0.4950000197E-01  -76474118.45    
  0.5025000200E-01  -77851696.47    
  0.5100000203E-01  -79201192.18    
  0.5175000206E-01  -80519898.19    
  0.5250000209E-01  -81804878.56    
  0.5325000212E-01  -83052978.36    
  0.5400000215E-01  -84260995.49    
  0.5475000218E-01  -85425771.88    
  0.5550000221E-01  -86543205.50    
  0.5625000224E-01  -87610245.72    
  0.5700000226E-01  -88622106.43    
  0.5775000229E-01  -89575291.66    
  0.5850000232E-01  -90465083.62    
  0.5925000235E-01  -91287266.86    
  0.6000000238E-01  -92037065.01    
  0.6075000241E-01  -92709814.78    
  0.6150000244E-01  -93300473.18    
  0.6225000247E-01  -93804116.87    
  0.6300000250E-01  -94215611.58    
  0.6375000253E-01  -94529648.42    
  0.6450000256E-01  -94741200.61    
  0.6525000259E-01  -94844893.75    
  0.6600000262E-01  -94835291.55    
  0.6675000265E-01  -94707571.46    
  0.6750000268E-01  -94456434.73    
  0.6825000271E-01  -94076796.76    
  0.6900000274E-01  -93564057.44    
  0.6975000277E-01  -92913472.17    
  0.7050000280E-01  -92121078.39    
  0.7125000283E-01  -91182568.01    
  0.7200000286E-01  -90094535.16    
  0.7275000289E-01  -88853914.17    
  0.7350000292E-01  -87457996.64    
  0.7425000295E-01  -85904834.25    
  0.7500000298E-01  -84193090.64    
  0.7575000301E-01  -82321890.74    
  0.7650000304E-01  -80291321.33    
  0.7725000307E-01  -78102279.94    
  0.7800000310E-01  -75756237.89    
  0.7875000313E-01  -73255742.59    
  0.7950000316E-01  -70604129.17    
  0.8025000319E-01  -67805694.73    
  0.8100000322E-01  -64865562.01    
  0.8175000325E-01  -61789800.92    
  0.8250000328E-01  -58585370.44    
  0.8325000331E-01  -55260082.81    
  0.8400000334E-01  -51822554.88    
  0.8475000337E-01  -48282189.41    
  0.8550000340E-01  -44649119.74    
  0.8625000343E-01  -40934068.32    
  0.8700000346E-01  -37148407.72    
  0.8775000349E-01  -33303954.24    
  0.8850000352E-01  -29412939.03    
  0.8925000355E-01  -25487911.16    
  0.9000000358E-01  -21541598.90    
  0.9075000361E-01  -17586736.41    
  0.9150000364E-01  -13635878.05    
  0.9225000367E-01  -9701128.180    
  0.9300000370E-01  -5793855.326    
  0.9375000373E-01  -1924455.770    
  0.9450000376E-01   1897823.550    
  0.9525000378E-01   5664856.547    
  0.9600000381E-01   9369364.819    
  0.9675000384E-01   13004488.01    
  0.9750000387E-01   16563114.90    
  0.9825000390E-01   20037189.55    
  0.9900000393E-01   23416857.04    
  0.9975000396E-01   26689574.24    
  0.1005000040       29839135.50    
  0.1012500040       32844725.41    
  0.1020000041       35680204.62    
  0.1027500041       38313905.36    
  0.1035000041       40709432.17    
  0.1042500041       42827665.95    
  0.1050000042       44630259.48    
  0.1057500042       46084217.38    
  0.1065000042       47166862.10    
  0.1072500043       47869887.93    
  0.1080000043       48201355.56    
  0.1087500043       48184936.55    
  0.1095000044       47856518.31    
  0.1102500044       47259136.95    
  0.1110000044       46437573.03    
  0.1117500044       45433558.02    
  0.1125000045       44282311.40    
  0.1132500045       43010361.80    
  0.1140000045       41634502.03    
  0.1147500046       40161606.57    
  0.1155000046       38589361.42    
  0.1162500046       36908089.71    
  0.1170000046       35103942.03    
  0.1177500047       33163312.85    
  0.1185000047       31077520.00    
  0.1192500047       28846190.56    
  0.1200000048       26477919.91    
  0.1207500048       23988071.81    
  0.1215000048       21394901.70    
  0.1222500049       18715737.15    
  0.1230000049       15964377.90    
  0.1237500049       13150038.97    
  0.1245000049       10277398.14    
  0.1252500050       7347277.170    
  0.1260000050       4357432.553    
  0.1267500050       1303289.346    
  0.1275000051      -1821531.674    
  0.1282500051      -5024840.675    
  0.1290000051      -8315681.012    
  0.1297500052      -11704186.74    
  0.1305000052      -15201550.97    
  0.1312500052      -18819982.53    
  0.1320000052      -22572682.11    
  0.1327500053      -26473762.85    
  0.1335000053      -30538119.10    
  0.1342500053      -34781164.36    
  0.1350000054      -39218449.27    
  0.1357500054      -43865027.12    
  0.1365000054      -48734532.43    
  0.1372500055      -53837965.60    
  0.1380000055      -59181951.30    
  0.1387500055      -64766721.96    
  0.1395000055      -70583452.67    
  0.1402500056      -76611590.66    
  0.1410000056      -82816183.09    
  0.1417500056      -89145995.94    
  0.1425000057      -95533362.67    
  0.1432500057      -101896376.3    
  0.1440000057      -108145701.5    
  0.1447500058      -114194657.3    
  0.1455000058      -119973565.2    
  0.1462500058      -125446413.6    
  0.1470000058      -130626592.9    
  0.1477500059      -135589480.7    
  0.1485000059      -140480625.2    
  0.1492500059      -145520459.1    
  0.1500000060      -151009314.5    
  0.1507500060      -157340456.7    
  0.1515000060      -165030180.5    
  0.1522500060      -174779634.1    
  0.1530000061      -187590159.6    
  0.1537500061      -204965616.1    
  0.1545000061      -229222361.4    
  0.1552500062      -263745872.6    
  0.1560000062      -311675576.4    
  0.1567500062      -364554686.8    
  0.1575000063      -363314379.5    
  0.1582500063      -241530150.4    
  0.1590000063      -115360119.4    
  0.1597500063      -58135935.78    
  0.1605000064      -39996037.50    
  0.1612500064      -36737161.95    
  0.1620000064      -38692556.53    
  0.1627500065      -42335543.95    
  0.1635000065      -46365277.21    
  0.1642500065      -50301207.07    
  0.1650000066      -53977970.79    
  0.1657500066      -57354960.61    
  0.1665000066      -60440638.27    
  0.1672500066      -63261653.24    
  0.1680000067      -65849727.01    
  0.1687500067      -68236245.08    
  0.1695000067      -70450149.28    
  0.1702500068      -72517239.45    
  0.1710000068      -74460046.09    
  0.1717500068      -76297986.67    
  0.1725000069      -78047516.98    
  0.1732500069      -79722334.47    
  0.1740000069      -81333517.95    
  0.1747500069      -82889653.11    
  0.1755000070      -84397011.84    
  0.1762500070      -85859628.95    
  0.1770000070      -87279662.71    
  0.1777500071      -88657916.14    
  0.1785000071      -89994260.79    
  0.1792500071      -91288578.81    
  0.1800000072      -92541432.62    
  0.1807500072      -93754743.56    
  0.1815000072      -94932397.68    
  0.1822500072      -96080089.48    
  0.1830000073      -97205114.63    
  0.1837500073      -98315997.42    
  0.1845000073      -99421568.20    
  0.1852500074      -100530475.0    
  0.1860000074      -101650687.5    
  0.1867500074      -102789316.8    
  0.1875000075      -103952621.6    
  0.1882500075      -105145537.0    
  0.1890000075      -106372611.2    
  0.1897500075      -107637584.2    
  0.1905000076      -108943784.2    
  0.1912500076      -110294390.8    
  0.1920000076      -111692399.8    
  0.1927500077      -113140911.2    
  0.1935000077      -114643251.4    
  0.1942500077      -116202884.9    
  0.1950000077      -117823762.0    
  0.1957500078      -119510162.9    
  0.1965000078      -121266701.0    
  0.1972500078      -123098756.5    
  0.1980000079      -125012198.6    
  0.1987500079      -127013620.9    
  0.1995000079      -129110292.8    
  0.2002500080      -131309901.7    
  0.2010000080      -133621245.0    
  0.2017500080      -136053560.0    
  0.2025000080      -138616707.0    
  0.2032500081      -141320780.1    
  0.2040000081      -144176377.9    
  0.2047500081      -147193548.4    
  0.2055000082      -150381211.1    
  0.2062500082      -153746804.7    
  0.2070000082      -157294344.8    
  0.2077500083      -161023898.9    
  0.2085000083      -164929289.0    
  0.2092500083      -168996127.5    
  0.2100000083      -173201193.9    
  0.2107500084      -177509965.5    
  0.2115000084      -181878814.2    
  0.2122500084      -186255553.6    
  0.2130000085      -190584805.2    
  0.2137500085      -194814301.3    
  0.2145000085      -198902383.3    
  0.2152500086      -202826079.5    
  0.2160000086      -206586973.3    
  0.2167500086      -210212785.5    
  0.2175000086      -213756186.7    
  0.2182500087      -217289830.4    
  0.2190000087      -220898471.9    
  0.2197500087      -224674047.7    
  0.2205000088      -228708525.9    
  0.2212500088      -233090399.1    
  0.2220000088      -237904303.6    
  0.2227500089      -243229478.5    
  0.2235000089      -249142283.1    
  0.2242500089      -255716320.1    
  0.2250000089      -263024571.2    
  0.2257500090      -271141143.0    
  0.2265000090      -280140632.7    
  0.2272500090      -290099178.3    
  0.2280000091      -301090958.2    
  0.2287500091      -313186800.4    
  0.2295000091      -326446452.5    
  0.2302500091      -340912441.3    
  0.2310000092      -356598534.4    
  0.2317500092      -373472828.2    
  0.2325000092      -391445325.9    
  0.2332500093      -410346159.6    
  0.2340000093      -429913646.2    
  0.2347500093      -449781242.1    
  0.2355000094      -469490101.0    
  0.2362500094      -488509435.4    
  0.2370000094      -506287477.2    
  0.2377500094      -522317583.9    
  0.2385000095      -536215610.1    
  0.2392500095      -547780575.7    
  0.2400000095      -557035499.3    
  0.2407500096      -564223630.3    
  0.2415000096      -569771673.8    
  0.2422500096      -574226291.2    
  0.2430000097      -578193875.2    
  0.2437500097      -582277385.5    
  0.2445000097      -587038738.3    
  0.2452500097      -592975899.9    
  0.2460000098      -600520578.9    
  0.2467500098      -610043248.5    
  0.2475000098      -621866611.3    
  0.2482500099      -636279841.4    
  0.2490000099      -653554015.5    
  0.2497500099      -673953067.8    
  0.2505000100      -697747839.6    
  0.2512500100      -725220508.7    
  0.2520000100      -756669023.4    
  0.2527500100      -792409115.4    
  0.2535000101      -832771394.0    
  0.2542500101      -878084849.7    
  0.2550000101      -928670145.3    
  0.2557500102      -984800515.4    
  0.2565000102      -1046666957.    
  0.2572500102      -1114324416.    
  0.2580000103      -1187605204.    
  0.2587500103      -1266041020.    
  0.2595000103      -1348744943.    
  0.2602500103      -1434298501.    
  0.2610000104      -1520672980.    
  0.2617500104      -1605162663.    
  0.2625000104      -1684452505.    
  0.2632500105      -1754791482.    
  0.2640000105      -1812323823.    
  0.2647500105      -1853521580.    
  0.2655000106      -1875681503.    
  0.2662500106      -1877330913.    
  0.2670000106      -1858423653.    
  0.2677500106      -1820282661.    
  0.2685000107      -1765307052.    
  0.2692500107      -1696542752.    
  0.2700000107      -1617247737.    
  0.2707500108      -1530562173.    
  0.2715000108      -1439319781.    
  0.2722500108      -1345992089.    
  0.2730000108      -1252707459.    
  0.2737500109      -1161291254.    
  0.2745000109      -1073279588.    
  0.2752500109      -989907858.4    
  0.2760000110      -912078110.1    
  0.2767500110      -840340856.9    
  0.2775000110      -774897674.5    
  0.2782500111      -715638594.6    
  0.2790000111      -662203902.3    
  0.2797500111      -614057409.2    
  0.2805000111      -570560312.4    
  0.2812500112      -531035031.9    
  0.2820000112      -494813753.4    
  0.2827500112      -461271754.9    
  0.2835000113      -429844980.5    
  0.2842500113      -400035315.6    
  0.2850000113      -371406082.7    
  0.2857500114      -343571357.5    
  0.2865000114      -316181772.8    
  0.2872500114      -288910119.0    
  0.2880000114      -261438412.1    
  0.2887500115      -233445603.8    
  0.2895000115      -204596904.6    
  0.2902500115      -174533500.4    
  0.2910000116      -142860783.2    
  0.2917500116      -109135352.1    
  0.2925000116      -72848169.32    
  0.2932500117      -33402999.80    
  0.2940000117       9912296.155    
  0.2947500117       57965175.26    
  0.2955000117       111833970.8    
  0.2962500118       172887207.3    
  0.2970000118       242900935.7    
  0.2977500118       324236940.2    
  0.2985000119       420119525.3    
  0.2992500119       535085532.4    
