# Macroscopic dielectric function epsm
#
# Momentum transfer Q=G+q in lattice cooridnates
# G:   0   0   0
# q:   0.0000000   0.0000000   0.0000000
# Momentum transfer Q=G+q in Cartesian cooridnates
# G:   0.0000000   0.0000000   0.0000000
# q:   0.0000000   0.0000000   0.0000000
# Norm2(G+q)   0.0000000
#
# Energy scale=   27.211384
# Used broadening in scaled energy units:    0.048980
#
# Number of k-points=       9
# Unit cell volume [au]=11248.798852
# Coulomb potential v(Q) [au]=          0.000000
#
#             Frequency                Re(epsm)                Im(epsm)       Re(epsm) form KKT
+0.0000000000000000E+00 +0.4628122257608982E+01 +0.0000000000000000E+00 +0.4627643647791622E+01
+0.5669038304166667E-02 +0.4628135274742037E+01 +0.2252441788534014E-03 +0.4627591989295254E+01
+0.1133807660833333E-01 +0.4628174326851964E+01 +0.4505006894355081E-03 +0.4627634639293689E+01
+0.1700711491250000E-01 +0.4628239416071150E+01 +0.6757818654683335E-03 +0.4627709231600127E+01
+0.2267615321666667E-01 +0.4628330545953945E+01 +0.9011000446611250E-03 +0.4627797037022746E+01
+0.2834519152083333E-01 +0.4628447721477254E+01 +0.1126467570705666E-02 +0.4627914960035056E+01
+0.3401422982500001E-01 +0.4628590949041325E+01 +0.1351896795273688E-02 +0.4628057768545414E+01
+0.3968326812916667E-01 +0.4628760236470775E+01 +0.1577400080016845E-02 +0.4628227115293342E+01
+0.4535230643333334E-01 +0.4628955593015863E+01 +0.1802989798570195E-02 +0.4628422390107643E+01
+0.5102134473750001E-01 +0.4629177029353970E+01 +0.2028678338559757E-02 +0.4628643792430591E+01
+0.5669038304166667E-01 +0.4629424557591330E+01 +0.2254478103614732E-02 +0.4628891269665385E+01
+0.6235942134583334E-01 +0.4629698191264964E+01 +0.2480401515385230E-02 +0.4629164853353531E+01
+0.6802845965000001E-01 +0.4629997945344890E+01 +0.2706461015566190E-02 +0.4629464552076521E+01
+0.7369749795416668E-01 +0.4630323836236519E+01 +0.2932669067927996E-02 +0.4629790383690589E+01
+0.7936653625833334E-01 +0.4630675881783306E+01 +0.3159038160354759E-02 +0.4630142365357571E+01
+0.8503557456250001E-01 +0.4631054101269656E+01 +0.3385580806890750E-02 +0.4630520516414489E+01
+0.9070461286666667E-01 +0.4631458515424015E+01 +0.3612309549795790E-02 +0.4630924857481881E+01
+0.9637365117083335E-01 +0.4631889146422245E+01 +0.3839236961610358E-02 +0.4631355410704190E+01
+0.1020426894750000E+00 +0.4632346017891209E+01 +0.4066375647230939E-02 +0.4631812199671673E+01
+0.1077117277791667E+00 +0.4632829154912613E+01 +0.4293738245996602E-02 +0.4632295249440696E+01
+0.1133807660833333E+00 +0.4633338584027063E+01 +0.4521337433787406E-02 +0.4632804586528971E+01
+0.1190498043875000E+00 +0.4633874333238396E+01 +0.4749185925135235E-02 +0.4633340238920078E+01
+0.1247188426916667E+00 +0.4634436432018225E+01 +0.4977296475348133E-02 +0.4633902236066392E+01
+0.1303878809958333E+00 +0.4635024911310744E+01 +0.5205681882648629E-02 +0.4634490608893464E+01
+0.1360569193000000E+00 +0.4635639803537776E+01 +0.5434354990326838E-02 +0.4635105389804645E+01
+0.1417259576041667E+00 +0.4636281142604068E+01 +0.5663328688909290E-02 +0.4635746612686006E+01
+0.1473949959083334E+00 +0.4636948963902840E+01 +0.5892615918344107E-02 +0.4636414312911850E+01
+0.1530640342125000E+00 +0.4637643304321567E+01 +0.6122229670203335E-02 +0.4637108527350206E+01
+0.1587330725166667E+00 +0.4638364202248050E+01 +0.6352182989903222E-02 +0.4637829294368912E+01
+0.1644021108208334E+00 +0.4639111697576709E+01 +0.6582488978943483E-02 +0.4638576653841765E+01
+0.1700711491250000E+00 +0.4639885831715148E+01 +0.6813160797165953E-02 +0.4639350647155175E+01
+0.1757401874291667E+00 +0.4640686647590973E+01 +0.7044211665033821E-02 +0.4640151317214779E+01
+0.1814092257333333E+00 +0.4641514189658901E+01 +0.7275654865932221E-02 +0.4640978708452575E+01
+0.1870782640375000E+00 +0.4642368503908084E+01 +0.7507503748490893E-02 +0.4641832866834315E+01
+0.1927473023416667E+00 +0.4643249637869747E+01 +0.7739771728929929E-02 +0.4642713839866971E+01
+0.1984163406458334E+00 +0.4644157640625060E+01 +0.7972472293429522E-02 +0.4643621676606728E+01
+0.2040853789500000E+00 +0.4645092562813328E+01 +0.8205619000524482E-02 +0.4644556427667025E+01
+0.2097544172541667E+00 +0.4646054456640398E+01 +0.8439225483524510E-02 +0.4645518145227061E+01
+0.2154234555583334E+00 +0.4647043375887399E+01 +0.8673305452961353E-02 +0.4646506883040452E+01
+0.2210924938625000E+00 +0.4648059375919729E+01 +0.8907872699063325E-02 +0.4647522696444264E+01
+0.2267615321666667E+00 +0.4649102513696345E+01 +0.9142941094258762E-02 +0.4648565642368229E+01
+0.2324305704708334E+00 +0.4650172847779337E+01 +0.9378524595708902E-02 +0.4649635779344328E+01
+0.2380996087750000E+00 +0.4651270438343786E+01 +0.9614637247871424E-02 +0.4650733167516659E+01
+0.2437686470791667E+00 +0.4652395347187932E+01 +0.9851293185095845E-02 +0.4651857868651572E+01
+0.2494376853833334E+00 +0.4653547637743637E+01 +0.1008850663425128E-01 +0.4653009946148144E+01
+0.2551067236875000E+00 +0.4654727375087132E+01 +0.1032629191738832E-01 +0.4654189465048834E+01
+0.2607757619916667E+00 +0.4655934625950106E+01 +0.1056466345443560E-01 +0.4655396492050684E+01
+0.2664448002958333E+00 +0.4657169458731074E+01 +0.1080363576593240E-01 +0.4656631095516566E+01
+0.2721138386000000E+00 +0.4658431943507077E+01 +0.1104322347579836E-01 +0.4657893345486920E+01
+0.2777828769041667E+00 +0.4659722152045694E+01 +0.1128344131414160E-01 +0.4659183313691777E+01
+0.2834519152083334E+00 +0.4661040157817384E+01 +0.1152430412010612E-01 +0.4660501073563045E+01
+0.2891209535125001E+00 +0.4662386036008161E+01 +0.1176582684476004E-01 +0.4661846700247105E+01
+0.2947899918166667E+00 +0.4663759863532571E+01 +0.1200802455402583E-01 +0.4663220270617930E+01
+0.3004590301208334E+00 +0.4665161719047053E+01 +0.1225091243165354E-01 +0.4664621863290342E+01
+0.3061280684250001E+00 +0.4666591682963620E+01 +0.1249450578223874E-01 +0.4666051558633621E+01
+0.3117971067291667E+00 +0.4668049837463869E+01 +0.1273882003428620E-01 +0.4667509438785642E+01
+0.3174661450333334E+00 +0.4669536266513376E+01 +0.1298387074332081E-01 +0.4668995587667128E+01
+0.3231351833375000E+00 +0.4671051055876442E+01 +0.1322967359504702E-01 +0.4670510090996408E+01
+0.3288042216416667E+00 +0.4672594293131194E+01 +0.1347624440855842E-01 +0.4672053036304535E+01
+0.3344732599458334E+00 +0.4674166067685054E+01 +0.1372359913959861E-01 +0.4673624512950759E+01
+0.3401422982500000E+00 +0.4675766470790590E+01 +0.1397175388387526E-01 +0.4675224612138297E+01
+0.3458113365541667E+00 +0.4677395595561781E+01 +0.1422072488042858E-01 +0.4676853426930526E+01
+0.3514803748583334E+00 +0.4679053536990592E+01 +0.1447052851505576E-01 +0.4678511052267703E+01
+0.3571494131625000E+00 +0.4680740391964025E+01 +0.1472118132379327E-01 +0.4680197584983908E+01
+0.3628184514666667E+00 +0.4682456259281530E+01 +0.1497269999645848E-01 +0.4681913123824386E+01
+0.3684874897708333E+00 +0.4684201239672823E+01 +0.1522510138025210E-01 +0.4683657769463410E+01
+0.3741565280750000E+00 +0.4685975435816152E+01 +0.1547840248342379E-01 +0.4685431624522549E+01
+0.3798255663791667E+00 +0.4687778952356930E+01 +0.1573262047900194E-01 +0.4687234793589138E+01
+0.3854946046833334E+00 +0.4689611895926863E+01 +0.1598777270859007E-01 +0.4689067383235615E+01
+0.3911636429875001E+00 +0.4691474375163462E+01 +0.1624387668623137E-01 +0.4690929502038770E+01
+0.3968326812916667E+00 +0.4693366500730042E+01 +0.1650095010234361E-01 +0.4692821260599868E+01
+0.4025017195958334E+00 +0.4695288385336128E+01 +0.1675901082772600E-01 +0.4694742771564997E+01
+0.4081707579000001E+00 +0.4697240143758378E+01 +0.1701807691764042E-01 +0.4696694149645934E+01
+0.4138397962041667E+00 +0.4699221892861937E+01 +0.1727816661596894E-01 +0.4698675511641497E+01
+0.4195088345083334E+00 +0.4701233751622275E+01 +0.1753929835944966E-01 +0.4700686976459410E+01
+0.4251778728125000E+00 +0.4703275841147539E+01 +0.1780149078199356E-01 +0.4702728665138530E+01
+0.4308469111166667E+00 +0.4705348284701369E+01 +0.1806476271908364E-01 +0.4704800700871608E+01
+0.4365159494208334E+00 +0.4707451207726242E+01 +0.1832913321226008E-01 +0.4706903209028836E+01
+0.4421849877250000E+00 +0.4709584737867331E+01 +0.1859462151369243E-01 +0.4709036317181353E+01
+0.4478540260291667E+00 +0.4711749004996879E+01 +0.1886124709084234E-01 +0.4711200155125816E+01
+0.4535230643333333E+00 +0.4713944141239134E+01 +0.1912902963121871E-01 +0.4713394854909279E+01
+0.4591921026375000E+00 +0.4716170280995811E+01 +0.1939798904722820E-01 +0.4715620550854497E+01
+0.4648611409416668E+00 +0.4718427560972109E+01 +0.1966814548112374E-01 +0.4717877379586053E+01
+0.4705301792458333E+00 +0.4720716120203330E+01 +0.1993951931005358E-01 +0.4720165480056817E+01
+0.4761992175500001E+00 +0.4723036100082037E+01 +0.2021213115121423E-01 +0.4722484993575207E+01
+0.4818682558541667E+00 +0.4725387644385860E+01 +0.2048600186710954E-01 +0.4724836063832841E+01
+0.4875372941583334E+00 +0.4727770899305833E+01 +0.2076115257091954E-01 +0.4727218836932864E+01
+0.4932063324625001E+00 +0.4730186013475431E+01 +0.2103760463198184E-01 +0.4729633461419005E+01
+0.4988753707666667E+00 +0.4732633138000192E+01 +0.2131537968138862E-01 +0.4732080088305082E+01
+0.5045444090708334E+00 +0.4735112426487976E+01 +0.2159449961770319E-01 +0.4734558871105239E+01
+0.5102134473750001E+00 +0.4737624035079920E+01 +0.2187498661279864E-01 +0.4737069965864942E+01
+0.5158824856791667E+00 +0.4740168122482027E+01 +0.2215686311782262E-01 +0.4739613531192367E+01
+0.5215515239833334E+00 +0.4742744849997488E+01 +0.2244015186929188E-01 +0.4742189728290839E+01
+0.5272205622875000E+00 +0.4745354381559642E+01 +0.2272487589531991E-01 +0.4744798720991652E+01
+0.5328896005916667E+00 +0.4747996883765724E+01 +0.2301105852198183E-01 +0.4747440675787773E+01
+0.5385586388958334E+00 +0.4750672525911293E+01 +0.2329872337982053E-01 +0.4750115761868273E+01
+0.5442276772000001E+00 +0.4753381480025439E+01 +0.2358789441049775E-01 +0.4752824151153435E+01
+0.5498967155041667E+00 +0.4756123920906727E+01 +0.2387859587359471E-01 +0.4755566018330656E+01
+0.5555657538083334E+00 +0.4758900026159976E+01 +0.2417085235356645E-01 +0.4758341540891188E+01
+0.5612347921125000E+00 +0.4761709976233770E+01 +0.2446468876685427E-01 +0.4761150899167600E+01
+0.5669038304166668E+00 +0.4764553954458852E+01 +0.2476013036916126E-01 +0.4763994276372092E+01
+0.5725728687208334E+00 +0.4767432147087310E+01 +0.2505720276289495E-01 +0.4766871858635650E+01
+0.5782419070250001E+00 +0.4770344743332650E+01 +0.2535593190478299E-01 +0.4769783835048061E+01
+0.5839109453291668E+00 +0.4773291935410715E+01 +0.2565634411366605E-01 +0.4772730397698698E+01
+0.5895799836333334E+00 +0.4776273918581544E+01 +0.2595846607847364E-01 +0.4775711741718435E+01
+0.5952490219375001E+00 +0.4779290891192105E+01 +0.2626232486638825E-01 +0.4778728065322209E+01
+0.6009180602416667E+00 +0.4782343054719995E+01 +0.2656794793120327E-01 +0.4781779569852750E+01
+0.6065870985458334E+00 +0.4785430613818088E+01 +0.2687536312188051E-01 +0.4784866459825102E+01
+0.6122561368500001E+00 +0.4788553776360181E+01 +0.2718459869131342E-01 +0.4787988942972165E+01
+0.6179251751541667E+00 +0.4791712753487635E+01 +0.2749568330530185E-01 +0.4791147230291335E+01
+0.6235942134583334E+00 +0.4794907759657057E+01 +0.2780864605174529E-01 +0.4794341536092107E+01
+0.6292632517625001E+00 +0.4798139012689036E+01 +0.2812351645006055E-01 +0.4797572078044675E+01
+0.6349322900666667E+00 +0.4801406733817959E+01 +0.2844032446083100E-01 +0.4800839077229748E+01
+0.6406013283708334E+00 +0.4804711147742948E+01 +0.2875910049569482E-01 +0.4804142758189297E+01
+0.6462703666750000E+00 +0.4808052482679919E+01 +0.2907987542747855E-01 +0.4807483348978653E+01
+0.6519394049791667E+00 +0.4811430970414827E+01 +0.2940268060058458E-01 +0.4810861081219604E+01
+0.6576084432833335E+00 +0.4814846846358073E+01 +0.2972754784163959E-01 +0.4814276190154665E+01
+0.6632774815875001E+00 +0.4818300349600168E+01 +0.3005450947041233E-01 +0.4817728914702748E+01
+0.6689465198916668E+00 +0.4821791722968634E+01 +0.3038359831100937E-01 +0.4821219497515939E+01
+0.6746155581958334E+00 +0.4825321213086203E+01 +0.3071484770335672E-01 +0.4824748185037533E+01
+0.6802845965000001E+00 +0.4828889070430321E+01 +0.3104829151497704E-01 +0.4828315227561543E+01
+0.6859536348041668E+00 +0.4832495549394013E+01 +0.3138396415307134E-01 +0.4831920879293323E+01
+0.6916226731083334E+00 +0.4836140908348138E+01 +0.3172190057691469E-01 +0.4835565398411904E+01
+0.6972917114125001E+00 +0.4839825409705068E+01 +0.3206213631057613E-01 +0.4839249047133364E+01
+0.7029607497166668E+00 +0.4843549319983824E+01 +0.3240470745597313E-01 +0.4842972091776000E+01
+0.7086297880208334E+00 +0.4847312909876718E+01 +0.3274965070627055E-01 +0.4846734802826784E+01
+0.7142988263250001E+00 +0.4851116454317522E+01 +0.3309700335963652E-01 +0.4850537455009389E+01
+0.7199678646291667E+00 +0.4854960232551218E+01 +0.3344680333336526E-01 +0.4854380327353890E+01
+0.7256369029333334E+00 +0.4858844528205395E+01 +0.3379908917837950E-01 +0.4858263703267991E+01
+0.7313059412375001E+00 +0.4862769629363275E+01 +0.3415390009412504E-01 +0.4862187870609855E+01
+0.7369749795416667E+00 +0.4866735828638470E+01 +0.3451127594386928E-01 +0.4866153121762848E+01
+0.7426440178458334E+00 +0.4870743423251481E+01 +0.3487125727041800E-01 +0.4870159753711794E+01
+0.7483130561500001E+00 +0.4874792715108015E+01 +0.3523388531226364E-01 +0.4874208068121250E+01
+0.7539820944541668E+00 +0.4878884010879145E+01 +0.3559920202017921E-01 +0.4878298371415344E+01
+0.7596511327583334E+00 +0.4883017622083377E+01 +0.3596725007427275E-01 +0.4882430974859823E+01
+0.7653201710625001E+00 +0.4887193865170669E+01 +0.3633807290151806E-01 +0.4886606194645951E+01
+0.7709892093666668E+00 +0.4891413061608469E+01 +0.3671171469377722E-01 +0.4890824351976188E+01
+0.7766582476708335E+00 +0.4895675537969797E+01 +0.3708822042633128E-01 +0.4895085773152305E+01
+0.7823272859750001E+00 +0.4899981626023492E+01 +0.3746763587693700E-01 +0.4899390789665309E+01
+0.7879963242791668E+00 +0.4904331662826586E+01 +0.3785000764542678E-01 +0.4903739738287723E+01
+0.7936653625833334E+00 +0.4908725990818995E+01 +0.3823538317387088E-01 +0.4908132961168022E+01
+0.7993344008875001E+00 +0.4913164957920443E+01 +0.3862381076732076E-01 +0.4912570805927393E+01
+0.8050034391916668E+00 +0.4917648917629823E+01 +0.3901533961515377E-01 +0.4917053625758895E+01
+0.8106724774958334E+00 +0.4922178229126981E+01 +0.3941001981304017E-01 +0.4921581779528999E+01
+0.8163415158000001E+00 +0.4926753257376998E+01 +0.3980790238555363E-01 +0.4926155631881695E+01
+0.8220105541041667E+00 +0.4931374373237094E+01 +0.4020903930944836E-01 +0.4930775553345150E+01
+0.8276795924083334E+00 +0.4936041953566164E+01 +0.4061348353762581E-01 +0.4935441920441009E+01
+0.8333486307125001E+00 +0.4940756381337086E+01 +0.4102128902381517E-01 +0.4940155115796386E+01
+0.8390176690166667E+00 +0.4945518045751835E+01 +0.4143251074799358E-01 +0.4944915528258947E+01
+0.8446867073208334E+00 +0.4950327342359497E+01 +0.4184720474257200E-01 +0.4949723553014412E+01
+0.8503557456250000E+00 +0.4955184673177314E+01 +0.4226542811937390E-01 +0.4954579591707425E+01
+0.8560247839291668E+00 +0.4960090446814768E+01 +0.4268723909743619E-01 +0.4959484052565434E+01
+0.8616938222333335E+00 +0.4965045078600879E+01 +0.4311269703166104E-01 +0.4964437350525606E+01
+0.8673628605375001E+00 +0.4970048990714760E+01 +0.4354186244235066E-01 +0.4969439907365123E+01
+0.8730318988416669E+00 +0.4975102612319555E+01 +0.4397479704565636E-01 +0.4974492151834784E+01
+0.8787009371458334E+00 +0.4980206379699852E+01 +0.4441156378497603E-01 +0.4979594519796109E+01
+0.8843699754500001E+00 +0.4985360736402677E+01 +0.4485222686333510E-01 +0.4984747454362044E+01
+0.8900390137541667E+00 +0.4990566133382204E+01 +0.4529685177678702E-01 +0.4989951406041220E+01
+0.8957080520583335E+00 +0.4995823029148264E+01 +0.4574550534887199E-01 +0.4995206832886250E+01
+0.9013770903625001E+00 +0.5001131889918784E+01 +0.4619825576617325E-01 +0.5000514200645632E+01
+0.9070461286666667E+00 +0.5006493189776299E+01 +0.4665517261501185E-01 +0.5005873982920011E+01
+0.9127151669708335E+00 +0.5011907410828634E+01 +0.4711632691932482E-01 +0.5011286661322361E+01
+0.9183842052750001E+00 +0.5017375043373924E+01 +0.4758179117976941E-01 +0.5016752725642664E+01
+0.9240532435791667E+00 +0.5022896586070081E+01 +0.4805163941410200E-01 +0.5022272674016936E+01
+0.9297222818833335E+00 +0.5028472546108854E+01 +0.4852594719888143E-01 +0.5027847013100750E+01
+0.9353913201875002E+00 +0.5034103439394681E+01 +0.4900479171254556E-01 +0.5033476258247776E+01
+0.9410603584916667E+00 +0.5039789790728410E+01 +0.4948825177991741E-01 +0.5039160933692846E+01
+0.9467293967958336E+00 +0.5045532133996097E+01 +0.4997640791819508E-01 +0.5044901572740428E+01
+0.9523984351000001E+00 +0.5051331012363065E+01 +0.5046934238448422E-01 +0.5050698717957956E+01
+0.9580674734041668E+00 +0.5057186978473346E+01 +0.5096713922493508E-01 +0.5056552921374953E+01
+0.9637365117083334E+00 +0.5063100594654735E+01 +0.5146988432554678E-01 +0.5062464744687328E+01
+0.9694055500125002E+00 +0.5069072433129618E+01 +0.5197766546470655E-01 +0.5068434759467766E+01
+0.9750745883166668E+00 +0.5075103076231770E+01 +0.5249057236753304E-01 +0.5074463547381802E+01
+0.9807436266208334E+00 +0.5081193116629340E+01 +0.5300869676209811E-01 +0.5080551700410228E+01
+0.9864126649250001E+00 +0.5087343157554243E+01 +0.5353213243760202E-01 +0.5086699821077842E+01
+0.9920817032291668E+00 +0.5093553813038115E+01 +0.5406097530458302E-01 +0.5092908522688631E+01
+0.9977507415333334E+00 +0.5099825708155174E+01 +0.5459532345724553E-01 +0.5099178429568047E+01
+0.1003419779837500E+01 +0.5106159479272103E+01 +0.5513527723799386E-01 +0.5105510177311940E+01
+0.1009088818141667E+01 +0.5112555774305284E+01 +0.5568093930426373E-01 +0.5111904413043294E+01
+0.1014757856445833E+01 +0.5119015252985633E+01 +0.5623241469774901E-01 +0.5118361795676015E+01
+0.1020426894750000E+01 +0.5125538587131250E+01 +0.5678981091612275E-01 +0.5124882996186820E+01
+0.1026095933054167E+01 +0.5132126460928230E+01 +0.5735323798736043E-01 +0.5131468697895192E+01
+0.1031764971358333E+01 +0.5138779571219910E+01 +0.5792280854677530E-01 +0.5138119596751680E+01
+0.1037434009662500E+01 +0.5145498627804802E+01 +0.5849863791688269E-01 +0.5144836401634894E+01
+0.1043103047966667E+01 +0.5152284353743638E+01 +0.5908084419021521E-01 +0.5151619834657556E+01
+0.1048772086270833E+01 +0.5159137485675720E+01 +0.5966954831521860E-01 +0.5158470631481761E+01
+0.1054441124575000E+01 +0.5166058774145070E+01 +0.6026487418536029E-01 +0.5165389541644092E+01
+0.1060110162879167E+01 +0.5173048983936588E+01 +0.6086694873159511E-01 +0.5172377328890621E+01
+0.1065779201183333E+01 +0.5180108894422728E+01 +0.6147590201833428E-01 +0.5179434771522444E+01
+0.1071448239487500E+01 +0.5187239299921002E+01 +0.6209186734307550E-01 +0.5186562662751869E+01
+0.1077117277791667E+01 +0.5194441010062725E+01 +0.6271498133985760E-01 +0.5193761811069934E+01
+0.1082786316095834E+01 +0.5201714850173476E+01 +0.6334538408671180E-01 +0.5201033040625491E+01
+0.1088455354400000E+01 +0.5209061661665677E+01 +0.6398321921729244E-01 +0.5208377191616403E+01
+0.1094124392704167E+01 +0.5216482302443779E+01 +0.6462863403687663E-01 +0.5215795120693195E+01
+0.1099793431008333E+01 +0.5223977647322518E+01 +0.6528177964293452E-01 +0.5223287701375789E+01
+0.1105462469312500E+01 +0.5231548588458785E+01 +0.6594281105048129E-01 +0.5230855824483869E+01
+0.1111131507616667E+01 +0.5239196035797613E+01 +0.6661188732243448E-01 +0.5238500398580958E+01
+0.1116800545920833E+01 +0.5246920917532845E+01 +0.6728917170520916E-01 +0.5246222350433554E+01
+0.1122469584225000E+01 +0.5254724180583077E+01 +0.6797483176980099E-01 +0.5254022625485017E+01
+0.1128138622529167E+01 +0.5262606791083479E+01 +0.6866903955861435E-01 +0.5261902188345590E+01
+0.1133807660833334E+01 +0.5270569734894125E+01 +0.6937197173831378E-01 +0.5269862023298655E+01
+0.1139476699137500E+01 +0.5278614018125485E+01 +0.7008380975898504E-01 +0.5277903134824079E+01
