# Macroscopic dielectric function epsm
#
# Momentum transfer Q=G+q in lattice cooridnates
# G:   0   0   0
# q:   0.0000000   0.0000000   0.0000000
# Momentum transfer Q=G+q in Cartesian cooridnates
# G:   0.0000000   0.0000000   0.0000000
# q:   0.0000000   0.0000000   0.0000000
# Norm2(G+q)   0.0000000
#
# Energy scale=   27.211384
# Used broadening in scaled energy units:    0.200001
#
# Number of k-points=      27
# Unit cell volume [au]=  110.092661
# Coulomb potential v(Q) [au]=          0.000000
#
#             Frequency                Re(epsm)                Im(epsm)       Re(epsm) form KKT
+0.0000000000000000E+00 +0.1255845843354648E+01 +0.3104596337433885E-02 +0.1545579796533846E+01
+0.5442276772000001E+00 +0.1264588979864070E+01 +0.3327632938347715E-02 +0.1544289343815484E+01
+0.1088455354400000E+01 +0.1273972604219820E+01 +0.3576325520402626E-02 +0.1544926931424537E+01
+0.1632683031600000E+01 +0.1284071956329063E+01 +0.3854870498054020E-02 +0.1547501639047929E+01
+0.2176910708800000E+01 +0.1294974862800836E+01 +0.4168379010156917E-02 +0.1551482680275914E+01
+0.2721138386000000E+01 +0.1306784547249807E+01 +0.4523132077833251E-02 +0.1557004423668692E+01
+0.3265366063200000E+01 +0.1319623244834128E+01 +0.4926924398672350E-02 +0.1564090427877003E+01
+0.3809593740400000E+01 +0.1333636908125061E+01 +0.5389534406581611E-02 +0.1572851815540482E+01
+0.4353821417600001E+01 +0.1349001416895896E+01 +0.5923377498796758E-02 +0.1583434202877152E+01
+0.4898049094800000E+01 +0.1365930896223775E+01 +0.6544430410853099E-02 +0.1596035864969075E+01
+0.5442276772000000E+01 +0.1384689047449417E+01 +0.7273566217929992E-02 +0.1610913513659155E+01
+0.5986504449200001E+01 +0.1405604878871120E+01 +0.8138527432246559E-02 +0.1628399133082006E+01
+0.6530732126400000E+01 +0.1429095021912142E+01 +0.9176920389713305E-02 +0.1648922805629319E+01
+0.7074959803600001E+01 +0.1455696188449918E+01 +0.1044090116533562E-01 +0.1673047094833134E+01
+0.7619187480800001E+01 +0.1486113771601628E+01 +0.1200477831976763E-01 +0.1701518542623043E+01
+0.8163415157999999E+01 +0.1521297177183931E+01 +0.1397789440693528E-01 +0.1735347316026632E+01
+0.8707642835200001E+01 +0.1562561580542480E+01 +0.1652764460455400E-01 +0.1775934855577233E+01
+0.9251870512400002E+01 +0.1611795248997884E+01 +0.1992347745882139E-01 +0.1825288148444443E+01
+0.9796098189600000E+01 +0.1671837095431336E+01 +0.2462880659316427E-01 +0.1886401081339226E+01
+0.1034032586680000E+02 +0.1747229497434302E+01 +0.3151808547796633E-01 +0.1963986585775908E+01
+0.1088455354400000E+02 +0.1845927472187660E+01 +0.4249124525073945E-01 +0.2066029138392393E+01
+0.1142878122120000E+02 +0.1984034737911326E+01 +0.6279574629510258E-01 +0.2207488843995917E+01
+0.1197300889840000E+02 +0.2203817672753912E+01 +0.1157010838347724E+00 +0.2418166153032800E+01
+0.1251723657560000E+02 +0.2606836168883237E+01 +0.4999236862306105E+00 +0.2528667557308548E+01
+0.1306146425280000E+02 +0.2097560152889000E+01 +0.1595557803532316E+00 +0.2868879121820705E+01
+0.1360569193000000E+02 +0.3735476787287833E+01 +0.5890339939829558E+00 +0.3820053726545813E+01
+0.1414991960720000E+02 +0.3687492935829004E+01 +0.5113814161050076E+01 +0.2814076863152786E+01
+0.1469414728440000E+02 +0.7887845951616316E+00 +0.4369192248755067E+01 +0.7255648174388085E-01
+0.1523837496160000E+02 -0.4527859890766509E+00 +0.3188398087677505E+00 -0.3409076805899671E+00
+0.1578260263880000E+02 +0.5442289586580145E+00 +0.5202090942086475E+00 +0.5886175940281253E+00
+0.1632683031600000E+02 +0.1204401142226423E+01 +0.2660476307551464E+00 +0.1144983548698853E+01
+0.1687105799320000E+02 +0.1842972076462577E+01 +0.1402822937257638E+01 +0.1249862028943591E+01
+0.1741528567040000E+02 +0.1113377195145760E+01 +0.1255122562002420E+01 +0.9184504009918800E+00
+0.1795951334760000E+02 +0.1628116350609536E+00 +0.1202753274615807E+01 +0.7195064322892966E+00
+0.1850374102480000E+02 +0.3996522329365982E+00 +0.7695877746927109E+00 +0.6867777371700838E+00
+0.1904796870200000E+02 +0.4483519101088678E+00 +0.6807067222554020E+00 +0.8519209499183650E+00
+0.1959219637920000E+02 +0.2873682940546428E+00 +0.9348077661615748E+00 +0.8576793585004243E+00
+0.2013642405640000E+02 +0.1054470374557402E+01 +0.3961528189124802E+00 +0.1058752719459883E+01
+0.2068065173360000E+02 +0.1808175525835466E+01 +0.8035196143811594E+00 +0.1632347919329245E+01
+0.2122487941080000E+02 -0.3823807168439004E-01 +0.3870913699043109E+01 +0.4779472013996513E+00
+0.2176910708800000E+02 -0.5413397741430256E+00 +0.5165769041526695E+00 -0.4900265140023730E+00
+0.2231333476520000E+02 +0.1079971914617779E+00 +0.9420188932134822E+00 -0.1450312629228350E+00
+0.2285756244240000E+02 -0.3293243780847859E+00 +0.4282647877905817E+00 -0.1899450136767016E+00
+0.2340179011960000E+02 -0.5879162470239826E-01 +0.1173399935816933E+00 -0.1111162959704570E-01
+0.2394601779680000E+02 +0.1507059740171806E+00 +0.6150177560138950E-01 +0.1814678343916337E+00
+0.2449024547400000E+02 +0.2708160205833040E+00 +0.4528331691843351E-01 +0.3093179782001647E+00
+0.2503447315120000E+02 +0.3695866991220956E+00 +0.3322332650840486E-01 +0.4028331240632026E+00
+0.2557870082840000E+02 +0.4564964035172585E+00 +0.3398079079594169E-01 +0.4817776846309813E+00
+0.2612292850560000E+02 +0.5706047889948677E+00 +0.7976682389542898E-01 +0.5162725204069682E+00
+0.2666715618280000E+02 +0.3605209873506710E+00 +0.1763783558380192E+00 +0.5191656332026184E+00
