# Macroscopic dielectric function epsm
#
# Momentum transfer Q=G+q in lattice cooridnates
# G:   0   0   0
# q:   0.0000000   0.0000000   0.0000000
# Momentum transfer Q=G+q in Cartesian cooridnates
# G:   0.0000000   0.0000000   0.0000000
# q:   0.0000000   0.0000000   0.0000000
# Norm2(G+q)   0.0000000
#
# Energy scale=   27.211384
# Used broadening in scaled energy units:    0.489805
#
# Number of k-points=      12
# Unit cell volume [au]=  430.848645
# Coulomb potential v(Q) [au]=          0.000000
#
#             Frequency                Re(epsm)                Im(epsm)       Re(epsm) form KKT
+0.4081707579000000E+03 +0.1000795075280241E+01 +0.1162427497520600E-04 +0.1000788941895665E+01
+0.4089870994158000E+03 +0.1000814950321620E+01 +0.1224570945852739E-04 +0.1000806680375936E+01
+0.4098034409316001E+03 +0.1000835902313401E+01 +0.1291888186457059E-04 +0.1000824051882922E+01
+0.4106197824474000E+03 +0.1000858022183390E+01 +0.1364976442539221E-04 +0.1000844879882475E+01
+0.4114361239632000E+03 +0.1000881411508515E+01 +0.1444522552067430E-04 +0.1000866815493072E+01
+0.4122524654790000E+03 +0.1000906184136806E+01 +0.1531319753312999E-04 +0.1000890410222876E+01
+0.4130688069948000E+03 +0.1000932468117887E+01 +0.1626288287722373E-04 +0.1000915581975243E+01
+0.4138851485106001E+03 +0.1000960408013268E+01 +0.1730500853238396E-04 +0.1000942458889452E+01
+0.4147014900264001E+03 +0.1000990167677323E+01 +0.1845214268963934E-04 +0.1000971166108488E+01
+0.4155178315422000E+03 +0.1001021933625783E+01 +0.1971909160345075E-04 +0.1001001871502197E+01
+0.4163341730580000E+03 +0.1001055919143185E+01 +0.2112340093721425E-04 +0.1001034770744931E+01
+0.4171505145738000E+03 +0.1001092369327423E+01 +0.2268599455520088E-04 +0.1001070094332631E+01
+0.4179668560896000E+03 +0.1001131567333209E+01 +0.2443199597788242E-04 +0.1001108111259704E+01
+0.4187831976054001E+03 +0.1001173842164100E+01 +0.2639179530859887E-04 +0.1001149136186557E+01
+0.4195995391212000E+03 +0.1001219578485395E+01 +0.2860245003434447E-04 +0.1001193538348419E+01
+0.4204158806370000E+03 +0.1001269229103984E+01 +0.3110954592537386E-04 +0.1001241753279825E+01
+0.4212322221528000E+03 +0.1001323331010902E+01 +0.3396970109849498E-04 +0.1001294297981584E+01
+0.4220485636686000E+03 +0.1001382526247132E+01 +0.3725398331674428E-04 +0.1001351790733609E+01
+0.4228649051844000E+03 +0.1001447589395445E+01 +0.4105264649858028E-04 +0.1001414977215961E+01
+0.4236812467002000E+03 +0.1001519464323214E+01 +0.4548180944380095E-04 +0.1001484765389079E+01
+0.4244975882160000E+03 +0.1001599314074406E+01 +0.5069305501076908E-04 +0.1001562272760171E+01
+0.4253139297318000E+03 +0.1001688589828702E+01 +0.5688752550617688E-04 +0.1001648891521637E+01
+0.4261302712476000E+03 +0.1001789128135726E+01 +0.6433712637717617E-04 +0.1001746380047402E+01
+0.4269466127634000E+03 +0.1001903291153987E+01 +0.7341731073638696E-04 +0.1001856994221406E+01
+0.4277629542792000E+03 +0.1002034174209496E+01 +0.8465939059583938E-04 +0.1001983680633565E+01
+0.4285792957950000E+03 +0.1002185922280936E+01 +0.9883710303628670E-04 +0.1002130368904443E+01
+0.4293956373108000E+03 +0.1002364229623497E+01 +0.1171161102235732E-03 +0.1002302428587719E+01
+0.4302119788266000E+03 +0.1002577161458917E+01 +0.1413256112297198E-03 +0.1002507410701658E+01
+0.4310283203424000E+03 +0.1002836573074510E+01 +0.1744829360131344E-03 +0.1002756305231838E+01
+0.4318446618582000E+03 +0.1003160710500446E+01 +0.2218859861885383E-03 +0.1003065785859939E+01
+0.4326610033740000E+03 +0.1003579338537352E+01 +0.2936148588754796E-03 +0.1003462461035453E+01
+0.4334773448898000E+03 +0.1004144824072264E+01 +0.4110144195705370E-03 +0.1003991457142768E+01
+0.4342936864056001E+03 +0.1004959030451673E+01 +0.6265631085874638E-03 +0.1004734622713140E+01
+0.4351100279214000E+03 +0.1006248207954321E+01 +0.1101378279875456E-02 +0.1005845299198181E+01
+0.4359263694372000E+03 +0.1008581918489285E+01 +0.2543005144575687E-02 +0.1007484199977554E+01
+0.4367427109530000E+03 +0.1011548839466694E+01 +0.9956193782316512E-02 +0.1006296245584023E+01
+0.4375590524688000E+03 +0.9969941371966663E+00 +0.1116534371204509E-01 +0.1001769176244383E+01
+0.4383753939846000E+03 +0.9995544804431405E+00 +0.5749057112132407E-02 +0.9998741652494584E+00
+0.4391917355004001E+03 +0.1000628153701764E+01 +0.5450563510983830E-02 +0.1000742215045805E+01
+0.4400080770162000E+03 +0.1001711040863191E+01 +0.8644186139060551E-02 +0.9995690482967621E+00
+0.4408244185320000E+03 +0.9957977271296881E+00 +0.5664909467270053E-02 +0.9979424630200161E+00
+0.4416407600478000E+03 +0.9987257334738988E+00 +0.3849759678084633E-02 +0.9985744471860651E+00
+0.4424571015636001E+03 +0.1000634824970566E+01 +0.6002303096073660E-02 +0.9986760371458575E+00
+0.4432734430794000E+03 +0.9943671045136300E+00 +0.6591384124352714E-02 +0.9969759934215349E+00
+0.4440897845952001E+03 +0.9960232402650515E+00 +0.3199968593049633E-02 +0.9963374719512085E+00
+0.4449061261110000E+03 +0.9969678451119470E+00 +0.2845549250949595E-02 +0.9971266037497910E+00
+0.4457224676268000E+03 +0.9978457503952337E+00 +0.4084607353528582E-02 +0.9968688031391051E+00
+0.4465388091426000E+03 +0.9948875346112096E+00 +0.2879993037620548E-02 +0.9961471840034306E+00
+0.4473551506584001E+03 +0.9960446095129739E+00 +0.1559923546187948E-02 +0.9962343598147829E+00
+0.4481714921742000E+03 +0.9963977675347474E+00 +0.1038579088124340E-02 +0.9966727523899166E+00
+0.4489878336900000E+03 +0.9969906620343716E+00 +0.6792162602199921E-03 +0.9971117514902101E+00
+0.4498041752058000E+03 +0.9974193128307063E+00 +0.6108454809668072E-03 +0.9975128009261044E+00
+0.4506205167216000E+03 +0.9977634849080328E+00 +0.7040878750411045E-03 +0.9977623023701494E+00
+0.4514368582374000E+03 +0.9977699072852103E+00 +0.7605230806548457E-03 +0.9978492982658703E+00
+0.4522531997532001E+03 +0.9978837582947292E+00 +0.5315828431424178E-03 +0.9979635498901864E+00
+0.4530695412690000E+03 +0.9980925911791674E+00 +0.5549790296873455E-03 +0.9981288739666538E+00
+0.4538858827848000E+03 +0.9981947280372667E+00 +0.6062012969994182E-03 +0.9982056296739533E+00
+0.4547022243006001E+03 +0.9981552809942167E+00 +0.5861429388245597E-03 +0.9982285480078100E+00
+0.4555185658164000E+03 +0.9981882564270136E+00 +0.4745713912154622E-03 +0.9982794585148662E+00
+0.4563349073322000E+03 +0.9983002190951767E+00 +0.4941490680191634E-03 +0.9983242209232090E+00
+0.4571512488480000E+03 +0.9982825795705015E+00 +0.4053990913343012E-03 +0.9983397654193985E+00
+0.4579675903638000E+03 +0.9983585871445724E+00 +0.2654055061794747E-03 +0.9984141520373738E+00
+0.4587839318796000E+03 +0.9984822579129889E+00 +0.2535909959709117E-03 +0.9985126511795908E+00
+0.4596002733954001E+03 +0.9985581628041700E+00 +0.2683125086188025E-03 +0.9985682862162170E+00
+0.4604166149112001E+03 +0.9985349048834740E+00 +0.2588543401590108E-03 +0.9985871451045417E+00
+0.4612329564270000E+03 +0.9985615416846372E+00 +0.1712676835591191E-03 +0.9986188628669277E+00
+0.4620492979428000E+03 +0.9986348585609381E+00 +0.1351183913293173E-03 +0.9986694418643278E+00
+0.4628656394586000E+03 +0.9986959656351038E+00 +0.6593360414029022E-04 +0.9987297536832024E+00
+0.4636819809744000E+03 +0.9987773583824950E+00 +0.4418817140941619E-04 +0.9988022336273175E+00
+0.4644983224902001E+03 +0.9988417536066692E+00 +0.3551184619927356E-04 +0.9988642487682342E+00
+0.4653146640060000E+03 +0.9988959521439867E+00 +0.3041677670251575E-04 +0.9989171564713358E+00
+0.4661310055218000E+03 +0.9989433138790129E+00 +0.2686318777436794E-04 +0.9989635568322006E+00
+0.4669473470376000E+03 +0.9989856061301294E+00 +0.2415339240536047E-04 +0.9990050362629703E+00
+0.4677636885534001E+03 +0.9990238995137705E+00 +0.2197544408006288E-04 +0.9990426038038090E+00
+0.4685800300692000E+03 +0.9990589107680522E+00 +0.2016447245005450E-04 +0.9990769493761447E+00
+0.4693963715850001E+03 +0.9990911542562746E+00 +0.1862286004316082E-04 +0.9991085732722291E+00
+0.4702127131008000E+03 +0.9991210179249642E+00 +0.1728789017432861E-04 +0.9991378548894546E+00
+0.4710290546166000E+03 +0.9991488053068877E+00 +0.1611672978313662E-04 +0.9991650919337572E+00
+0.4718453961324000E+03 +0.9991747605933233E+00 +0.1507871595292681E-04 +0.9991905242582714E+00
+0.4726617376482001E+03 +0.9991990845378057E+00 +0.1415106938709654E-04 +0.9992143491626765E+00
+0.4734780791640000E+03 +0.9992219450524594E+00 +0.1331635717943891E-04 +0.9992367316641648E+00
+0.4742944206798000E+03 +0.9992434845589555E+00 +0.1256091128906395E-04 +0.9992578116566319E+00
+0.4751107621956000E+03 +0.9992638252621188E+00 +0.1187379926951189E-04 +0.9992777090600639E+00
+0.4759271037114000E+03 +0.9992830730414433E+00 +0.1124612952042829E-04 +0.9992965276226913E+00
+0.4767434452272000E+03 +0.9993013203922201E+00 +0.1067056748417776E-04 +0.9993143577897106E+00
+0.4775597867430000E+03 +0.9993186486942920E+00 +0.1014098955509585E-04 +0.9993312789054382E+00
+0.4783761282588000E+03 +0.9993351299932367E+00 +0.9652229649338601E-05 +0.9993473609245139E+00
+0.4791924697746000E+03 +0.9993508284202869E+00 +0.9199889796623851E-05 +0.9993626657509916E+00
+0.4800088112904000E+03 +0.9993658013394618E+00 +0.8780196014568825E-05 +0.9993772482771828E+00
+0.4808251528062001E+03 +0.9993801002852446E+00 +0.8389886884470937E-05 +0.9993911571864776E+00
+0.4816414943220000E+03 +0.9993937717370367E+00 +0.8026126185339751E-05 +0.9994044354718331E+00
+0.4824578358378000E+03 +0.9994068577647238E+00 +0.7686433524351253E-05 +0.9994171208839313E+00
+0.4832741773536000E+03 +0.9994193965712579E+00 +0.7368628632259574E-05 +0.9994292453970932E+00
+0.4840905188694000E+03 +0.9994314229520728E+00 +0.7070786175969564E-05 +0.9994408364686422E+00
+0.4849068603852000E+03 +0.9994429686866950E+00 +0.6791198765260916E-05 +0.9994519088805000E+00
+0.4857232019010000E+03 +0.9994540628745878E+00 +0.6528346415141948E-05 +0.9994624838060853E+00
+0.4865395434168000E+03 +0.9994647322247715E+00 +0.6280871145967115E-05 +0.9994724893713136E+00
+0.4873558849326000E+03 +0.9994750013068495E+00 +0.6047555710526486E-05 +0.9994821526168129E+00
+0.4881722264484001E+03 +0.9994848927695997E+00 +0.5827305664432304E-05 +0.9994903208828325E+00
+0.4889885679642000E+03 +0.9994944275321428E+00 +0.5619134166146189E-05 +0.9994988125882066E+00
