#   Frequency/(eV/hbar)                Re(S(w))                Im(S(w))
+0.4081707579000000E+03 +0.1264686665426500E-04 -0.8668228269608202E-03
+0.4089870994158000E+03 +0.1334463069010082E-04 -0.8902193481629321E-03
+0.4098034409316001E+03 +0.1410053495445384E-04 -0.9148695852658934E-03
+0.4106197824474000E+03 +0.1492123017196263E-04 -0.9408780997876432E-03
+0.4114361239632000E+03 +0.1581435079274839E-04 -0.9683615077364704E-03
+0.4122524654790000E+03 +0.1678869597535978E-04 -0.9974502819536557E-03
+0.4130688069948000E+03 +0.1785445088673593E-04 -0.1028290890217873E-02
+0.4138851485106001E+03 +0.1902345898347031E-04 -0.1061048344917769E-02
+0.4147014900264001E+03 +0.2030955923901194E-04 -0.1095909260477698E-02
+0.4155178315422000E+03 +0.2172900676326257E-04 -0.1133085541439287E-02
+0.4163341730580000E+03 +0.2330100140916597E-04 -0.1172818859577823E-02
+0.4171505145738000E+03 +0.2504835748669342E-04 -0.1215386125902222E-02
+0.4179668560896000E+03 +0.2699835966567277E-04 -0.1261106227604160E-02
+0.4187831976054001E+03 +0.2918386714005929E-04 -0.1310348387859792E-02
+0.4195995391212000E+03 +0.3164475258978287E-04 -0.1363542627913038E-02
+0.4204158806370000E+03 +0.3442979821447106E-04 -0.1421192981279192E-02
+0.4212322221528000E+03 +0.3759922415245141E-04 -0.1483894352077391E-02
+0.4220485636686000E+03 +0.4122810467705993E-04 -0.1552354259020007E-02
+0.4228649051844000E+03 +0.4541105075440188E-04 -0.1627421219296424E-02
+0.4236812467002000E+03 +0.5026873100418693E-04 -0.1710122292488819E-02
+0.4244975882160000E+03 +0.5595711387311396E-04 -0.1801713471645398E-02
+0.4253139297318000E+03 +0.6268082574070641E-04 -0.1903748426229268E-02
+0.4261302712476000E+03 +0.7071288683970379E-04 -0.2018174002409698E-02
+0.4269466127634000E+03 +0.8042460260578037E-04 -0.2147465643366540E-02
+0.4277629542792000E+03 +0.9233213289005047E-04 -0.2294823936547640E-02
+0.4285792957950000E+03 +0.1071714362531918E-03 -0.2464467577333757E-02
+0.4293956373108000E+03 +0.1260235042976677E-03 -0.2662083686727967E-02
+0.4302119788266000E+03 +0.1505330888853861E-03 -0.2895545310691699E-02
+0.4310283203424000E+03 +0.1833113667478159E-03 -0.3176104192833895E-02
+0.4318446618582000E+03 +0.2287260306616887E-03 -0.3520477107509557E-02
+0.4326610033740000E+03 +0.2945787788621159E-03 -0.3954728238938513E-02
+0.4334773448898000E+03 +0.3960418618708688E-03 -0.4522069291883470E-02
+0.4342936864056001E+03 +0.5661932738176166E-03 -0.5300116178084839E-02
+0.4351100279214000E+03 +0.8897876702166565E-03 -0.6443987791441677E-02
+0.4359263694372000E+03 +0.1644126018185437E-02 -0.8309839664188162E-02
+0.4367427109530000E+03 +0.4182575600035891E-02 -0.1178588990044917E-01
+0.4375590524688000E+03 +0.1750912210231890E-01 -0.1267371247190173E-01
+0.4383753939846000E+03 +0.1160131558423036E-01 +0.3558187058524806E-02
+0.4391917355004001E+03 +0.7283590729057915E-02 +0.1131058451649097E-02
+0.4400080770162000E+03 +0.7250382444201503E-02 -0.7153700032317193E-03
+0.4408244185320000E+03 +0.1080503036017457E-01 +0.2244996679292587E-02
+0.4416407600478000E+03 +0.5484590272359439E-02 +0.3887188722498168E-02
+0.4424571015636001E+03 +0.4563531439848206E-02 +0.1157451836822885E-02
+0.4432734430794000E+03 +0.9700266359560800E-02 -0.7422701983200444E-03
+0.4440897845952001E+03 +0.6797387543119326E-02 +0.7209055090773112E-02
+0.4449061261110000E+03 +0.3970343316962349E-02 +0.5303612231037640E-02
+0.4457224676268000E+03 +0.3695469353683853E-02 +0.3987464950119987E-02
+0.4465388091426000E+03 +0.5374128716427215E-02 +0.5023773402271683E-02
+0.4473551506584001E+03 +0.2576252720572531E-02 +0.6201060906446696E-02
+0.4481714921742000E+03 +0.1484578560121376E-02 +0.5386700340147552E-02
+0.4489878336900000E+03 +0.9185168413630103E-03 +0.4660348835325131E-02
+0.4498041752058000E+03 +0.5325746902104039E-03 +0.4204707308505951E-02
+0.4506205167216000E+03 +0.3017054294296965E-03 +0.3652475044742197E-02
+0.4514368582374000E+03 +0.2158774104355649E-03 +0.3249298474237077E-02
+0.4522531997532001E+03 +0.1681416866627983E-03 +0.2942785679222466E-02
+0.4530695412690000E+03 +0.1368365904691714E-03 +0.2697708322645943E-02
+0.4538858827848000E+03 +0.1145217661452323E-03 +0.2495273602997322E-02
+0.4547022243006001E+03 +0.9777807785849349E-04 +0.2324216418090126E-02
+0.4555185658164000E+03 +0.8476129139614502E-04 +0.2177192502547345E-02
+0.4563349073322000E+03 +0.7437181705750070E-04 +0.2049125888798159E-02
+0.4571512488480000E+03 +0.6590726638498259E-04 +0.1936355291095217E-02
+0.4579675903638000E+03 +0.5889565186167667E-04 +0.1836152050907592E-02
+0.4587839318796000E+03 +0.5300717411559881E-04 +0.1746429091733469E-02
+0.4596002733954001E+03 +0.4800408575846270E-04 +0.1665555873679952E-02
+0.4604166149112001E+03 +0.4371055756145684E-04 +0.1592235794946112E-02
+0.4612329564270000E+03 +0.3999373673617530E-04 +0.1525422187200724E-02
+0.4620492979428000E+03 +0.3675139381006446E-04 +0.1464259118300689E-02
+0.4628656394586000E+03 +0.3390361379340563E-04 +0.1408038672625695E-02
+0.4636819809744000E+03 +0.3138705865248238E-04 +0.1356169485568655E-02
+0.4644983224902001E+03 +0.2915091435062445E-04 +0.1308153151231907E-02
+0.4653146640060000E+03 +0.2715397050656171E-04 +0.1263566254387649E-02
+0.4661310055218000E+03 +0.2536247902425169E-04 +0.1222046494672187E-02
+0.4669473470376000E+03 +0.2374855929466374E-04 +0.1183281837258768E-02
+0.4677636885534001E+03 +0.2228899379174128E-04 +0.1147001934662199E-02
+0.4685800300692000E+03 +0.2096430699493929E-04 +0.1112971275355323E-02
+0.4693963715850001E+03 +0.1975805291443502E-04 +0.1080983661002409E-02
+0.4702127131008000E+03 +0.1865625822010594E-04 +0.1050857717045204E-02
+0.4710290546166000E+03 +0.1764698282975392E-04 +0.1022433214974723E-02
+0.4718453961324000E+03 +0.1671997013409693E-04 +0.9955680379701510E-03
+0.4726617376482001E+03 +0.1586636631516572E-04 +0.9701356607878259E-03
+0.4734780791640000E+03 +0.1507849341781941E-04 +0.9460230438740236E-03
+0.4742944206798000E+03 +0.1434966459977250E-04 +0.9231288635435400E-03
+0.4751107621956000E+03 +0.1367403274237620E-04 +0.9013620166427059E-03
+0.4759271037114000E+03 +0.1304646564428098E-04 +0.8806403507976697E-03
+0.4767434452272000E+03 +0.1246244254449636E-04 +0.8608895811538447E-03
+0.4775597867430000E+03 +0.1191796787107633E-04 +0.8420423621301610E-03
+0.4783761282588000E+03 +0.1140949898628984E-04 +0.8240374886928650E-03
+0.4791924697746000E+03 +0.1093388536990293E-04 +0.8068192063710981E-03
+0.4800088112904000E+03 +0.1048831720052752E-04 +0.7903366129948916E-03
+0.4808251528062001E+03 +0.1007028169839449E-04 +0.7745431381283523E-03
+0.4816414943220000E+03 +0.9677525908990084E-05 +0.7593960885951137E-03
+0.4824578358378000E+03 +0.9308024856228093E-05 +0.7448562504401705E-03
+0.4832741773536000E+03 +0.8959954191545166E-05 +0.7308875392644300E-03
+0.4840905188694000E+03 +0.8631666623041630E-05 +0.7174566921646850E-03
+0.4849068603852000E+03 +0.8321671535319907E-05 +0.7045329955842726E-03
+0.4857232019010000E+03 +0.8028617312684648E-05 +0.6920880442492351E-03
+0.4865395434168000E+03 +0.7751275961026155E-05 +0.6800955271092736E-03
+0.4873558849326000E+03 +0.7488529690989431E-05 +0.6685310367899543E-03
+0.4881722264484001E+03 +0.7239359180045846E-05 +0.6573718995922000E-03
+0.4889885679642000E+03 +0.7002833276255928E-05 +0.6465970234771877E-03
